PE FL                   SPECTRUM    ASCII       PEDS        1.60        
  -1
1DE7F7~1.TXT
18/01/22
12:20:54.00
18/01/22
12:20:54.00


598.500000
1









LS55
350.00
3.00
2.50
SCAN
1
20
100
100
0
60
0
1
0
1
7
ON
600 350 
1 0 0
#HDR
-1
-1
#GR
NM

0.00002384185791015625
0.0
400.000000
0.500000
398
8
178.943000
1.049000
#DATA
400.000000	11.747000  
400.500000	9.031000   
401.000000	9.324000   
401.500000	9.641999   
402.000000	10.162000  
402.500000	10.818000  
403.000000	11.147000  
403.500000	12.211000  
404.000000	12.197000  
404.500000	12.523000  
405.000000	13.869000  
405.500000	15.328000  
406.000000	15.806000  
406.500000	17.348000  
407.000000	19.852000  
407.500000	20.760000  
408.000000	21.167000  
408.500000	21.859000  
409.000000	23.367000  
409.500000	25.031000  
410.000000	26.845000  
410.500000	28.191000  
411.000000	30.806000  
411.500000	32.654000  
412.000000	34.924000  
412.500000	36.630000  
413.000000	39.721000  
413.500000	41.664000  
414.000000	43.981000  
414.500000	45.610000  
415.000000	48.286000  
415.500000	51.234000  
416.000000	55.201000  
416.500000	58.491000  
417.000000	60.875000  
417.500000	63.282000  
418.000000	66.727000  
418.500000	68.513000  
419.000000	73.013000  
419.500000	75.298000  
420.000000	78.964000  
420.500000	82.537000  
421.000000	86.307000  
421.500000	88.299000  
422.000000	93.914000  
422.500000	96.913000  
423.000000	99.360000  
423.500000	100.915000 
424.000000	105.220000 
424.500000	108.206000 
425.000000	111.023000 
425.500000	115.637000 
426.000000	119.006000 
426.500000	122.225000 
427.000000	126.044000 
427.500000	127.806000 
428.000000	128.208000 
428.500000	132.831000 
429.000000	136.499000 
429.500000	142.290000 
430.000000	142.956000 
430.500000	144.090000 
431.000000	146.055000 
431.500000	147.353000 
432.000000	150.424000 
432.500000	153.808000 
433.000000	153.179000 
433.500000	155.105000 
434.000000	158.491000 
434.500000	160.635000 
435.000000	163.089000 
435.500000	165.917000 
436.000000	166.999000 
436.500000	167.673000 
437.000000	170.314000 
437.500000	172.109000 
438.000000	171.983000 
438.500000	170.240000 
439.000000	171.810000 
439.500000	174.358000 
440.000000	177.401000 
440.500000	175.473000 
441.000000	175.163000 
441.500000	175.383000 
442.000000	177.924000 
442.500000	175.330000 
443.000000	177.745000 
443.500000	178.943000 
444.000000	176.115000 
444.500000	175.984000 
445.000000	177.012000 
445.500000	175.767000 
446.000000	175.068000 
446.500000	175.165000 
447.000000	177.047000 
447.500000	176.703000 
448.000000	174.172000 
448.500000	174.216000 
449.000000	171.104000 
449.500000	171.457000 
450.000000	170.801000 
450.500000	168.036000 
451.000000	168.100000 
451.500000	167.425000 
452.000000	167.200000 
452.500000	168.284000 
453.000000	164.761000 
453.500000	161.709000 
454.000000	161.752000 
454.500000	158.724000 
455.000000	155.767000 
455.500000	155.187000 
456.000000	154.721000 
456.500000	153.790000 
457.000000	152.455000 
457.500000	150.922000 
458.000000	150.315000 
458.500000	149.543000 
459.000000	149.244000 
459.500000	148.015000 
460.000000	144.729000 
460.500000	142.064000 
461.000000	140.955000 
461.500000	140.915000 
462.000000	136.295000 
462.500000	133.645000 
463.000000	133.566000 
463.500000	133.960000 
464.000000	133.346000 
464.500000	131.616000 
465.000000	128.115000 
465.500000	125.942000 
466.000000	127.748000 
466.500000	125.099000 
467.000000	123.685000 
467.500000	121.421000 
468.000000	121.465000 
468.500000	118.918000 
469.000000	119.667000 
469.500000	117.041000 
470.000000	116.016000 
470.500000	115.626000 
471.000000	113.840000 
471.500000	110.961000 
472.000000	109.693000 
472.500000	108.756000 
473.000000	108.842000 
473.500000	107.151000 
474.000000	108.440000 
474.500000	105.424000 
475.000000	104.101000 
475.500000	102.953000 
476.000000	100.507000 
476.500000	100.718000 
477.000000	99.933000  
477.500000	99.739999  
478.000000	95.056000  
478.500000	95.482000  
479.000000	94.727999  
479.500000	94.287000  
480.000000	93.059000  
480.500000	90.510000  
481.000000	90.429000  
481.500000	88.117999  
482.000000	87.727000  
482.500000	87.694000  
483.000000	86.586000  
483.500000	85.757000  
484.000000	85.008000  
484.500000	83.075000  
485.000000	83.114999  
485.500000	79.892000  
486.000000	80.483000  
486.500000	80.714000  
487.000000	78.587000  
487.500000	76.871000  
488.000000	77.486000  
488.500000	75.745000  
489.000000	73.690000  
489.500000	72.736999  
490.000000	73.310000  
490.500000	71.999000  
491.000000	70.025000  
491.500000	69.781000  
492.000000	68.983000  
492.500000	68.305000  
493.000000	65.861999  
493.500000	65.895000  
494.000000	66.384000  
494.500000	64.995000  
495.000000	65.005000  
495.500000	63.408000  
496.000000	60.249000  
496.500000	59.932000  
497.000000	58.978000  
497.500000	60.054000  
498.000000	58.011000  
498.500000	56.837000  
499.000000	55.757000  
499.500000	55.449000  
500.000000	54.373000  
500.500000	53.651000  
501.000000	52.251000  
501.500000	52.319000  
502.000000	51.764000  
502.500000	52.004000  
503.000000	49.468000  
503.500000	49.018000  
504.000000	49.286000  
504.500000	47.980000  
505.000000	47.142000  
505.500000	46.663000  
506.000000	46.255000  
506.500000	45.170000  
507.000000	43.806000  
507.500000	43.839000  
508.000000	44.213000  
508.500000	42.178000  
509.000000	41.191000  
509.500000	39.881000  
510.000000	40.539000  
510.500000	40.874000  
511.000000	39.397000  
511.500000	39.306000  
512.000000	38.342000  
512.500000	37.411000  
513.000000	37.380000  
513.500000	35.916000  
514.000000	35.088000  
514.500000	34.250000  
515.000000	35.041000  
515.500000	34.167000  
516.000000	33.621000  
516.500000	33.042000  
517.000000	32.109000  
517.500000	31.802000  
518.000000	30.096000  
518.500000	29.491000  
519.000000	29.045000  
519.500000	28.463000  
520.000000	27.776000  
520.500000	27.460000  
521.000000	27.127000  
521.500000	25.679000  
522.000000	25.574000  
522.500000	24.089000  
523.000000	24.382000  
523.500000	23.464000  
524.000000	22.619000  
524.500000	22.160000  
525.000000	22.180000  
525.500000	22.515000  
526.000000	20.145000  
526.500000	20.701000  
527.000000	20.272000  
527.500000	20.019000  
528.000000	19.017000  
528.500000	18.820000  
529.000000	18.477000  
529.500000	17.511000  
530.000000	17.372000  
530.500000	17.221000  
531.000000	15.807000  
531.500000	16.230000  
532.000000	15.089000  
532.500000	14.260000  
533.000000	14.507000  
533.500000	14.409000  
534.000000	14.450000  
534.500000	13.821000  
535.000000	13.381000  
535.500000	13.554000  
536.000000	12.813000  
536.500000	12.061000  
537.000000	11.430000  
537.500000	11.526000  
538.000000	11.252000  
538.500000	10.905000  
539.000000	10.731000  
539.500000	10.606000  
540.000000	9.997000   
540.500000	9.755000   
541.000000	10.304000  
541.500000	9.782999   
542.000000	9.369999   
542.500000	9.249000   
543.000000	9.102000   
543.500000	9.013000   
544.000000	8.731000   
544.500000	8.035000   
545.000000	8.097000   
545.500000	7.671000   
546.000000	7.697000   
546.500000	7.453000   
547.000000	7.498000   
547.500000	6.867000   
548.000000	7.332000   
548.500000	6.979000   
549.000000	6.923000   
549.500000	6.337000   
550.000000	7.218000   
550.500000	6.723000   
551.000000	6.542000   
551.500000	6.087000   
552.000000	5.914000   
552.500000	5.883000   
553.000000	5.977000   
553.500000	5.519000   
554.000000	6.118000   
554.500000	5.734000   
555.000000	5.120000   
555.500000	5.456000   
556.000000	5.435000   
556.500000	5.256000   
557.000000	4.864000   
557.500000	4.837000   
558.000000	4.485000   
558.500000	4.712000   
559.000000	4.395000   
559.500000	4.338000   
560.000000	4.481000   
560.500000	4.248000   
561.000000	4.438000   
561.500000	4.158000   
562.000000	4.228000   
562.500000	3.910000   
563.000000	4.087000   
563.500000	3.837000   
564.000000	3.488000   
564.500000	3.729000   
565.000000	3.613000   
565.500000	3.124000   
566.000000	3.402000   
566.500000	3.443000   
567.000000	3.558000   
567.500000	3.225000   
568.000000	3.018000   
568.500000	3.153000   
569.000000	2.957000   
569.500000	2.940000   
570.000000	3.126000   
570.500000	2.865000   
571.000000	2.850000   
571.500000	2.810000   
572.000000	2.800000   
572.500000	2.741000   
573.000000	2.623000   
573.500000	2.471000   
574.000000	2.650000   
574.500000	3.058000   
575.000000	2.710000   
575.500000	2.609000   
576.000000	2.523000   
576.500000	2.220000   
577.000000	2.086000   
577.500000	2.223000   
578.000000	2.022000   
578.500000	2.060000   
579.000000	1.994000   
579.500000	2.116000   
580.000000	2.142000   
580.500000	2.045000   
581.000000	1.987000   
581.500000	1.702000   
582.000000	1.938000   
582.500000	2.098000   
583.000000	2.138000   
583.500000	2.039000   
584.000000	2.261000   
584.500000	1.871000   
585.000000	1.653000   
585.500000	1.643000   
586.000000	1.669000   
586.500000	1.760000   
587.000000	1.778000   
587.500000	1.811000   
588.000000	1.611000   
588.500000	1.526000   
589.000000	1.470000   
589.500000	1.682000   
590.000000	1.623000   
590.500000	1.507000   
591.000000	1.444000   
591.500000	1.560000   
592.000000	1.132000   
592.500000	1.635000   
593.000000	1.545000   
593.500000	1.577000   
594.000000	1.642000   
594.500000	1.472000   
595.000000	1.406000   
595.500000	1.335000   
596.000000	1.223000   
596.500000	1.290000   
597.000000	1.266000   
597.500000	1.266000   
598.000000	1.049000   
598.500000	1.330000   

