PE FL                   SPECTRUM    ASCII       PEDS        1.60        
  -1
1D00FB~1.TXT
18/01/22
11:24:55.00
18/01/22
11:24:55.00


598.500000
1









LS55
350.00
3.00
2.50
SCAN
1
20
100
100
0
60
0
1
0
1
7
ON
600 350 
1 0 0
#HDR
-1
-1
#GR
NM

0.00002384185791015625
0.0
400.000000
0.500000
398
8
216.818000
0.971000
#DATA
400.000000	9.048999   
400.500000	6.914000   
401.000000	6.496000   
401.500000	6.919000   
402.000000	7.549000   
402.500000	8.448000   
403.000000	8.388999   
403.500000	8.893000   
404.000000	9.138999   
404.500000	9.852000   
405.000000	10.381000  
405.500000	11.206000  
406.000000	11.206000  
406.500000	12.589000  
407.000000	14.266000  
407.500000	15.765000  
408.000000	16.071000  
408.500000	16.866000  
409.000000	18.474000  
409.500000	19.560000  
410.000000	20.767000  
410.500000	23.688000  
411.000000	24.492000  
411.500000	26.202000  
412.000000	28.006000  
412.500000	29.909000  
413.000000	31.927000  
413.500000	34.605000  
414.000000	36.944000  
414.500000	40.256000  
415.000000	42.489000  
415.500000	45.532000  
416.000000	48.684000  
416.500000	51.569000  
417.000000	53.680000  
417.500000	56.666000  
418.000000	61.539000  
418.500000	64.580000  
419.000000	67.072000  
419.500000	71.625000  
420.000000	76.121000  
420.500000	79.556000  
421.000000	84.428000  
421.500000	89.178000  
422.000000	95.455000  
422.500000	97.327000  
423.000000	100.691000 
423.500000	106.255000 
424.000000	108.353000 
424.500000	112.009000 
425.000000	118.205000 
425.500000	121.791000 
426.000000	124.957000 
426.500000	128.182000 
427.000000	133.617000 
427.500000	136.761000 
428.000000	138.434000 
428.500000	144.550000 
429.000000	149.666000 
429.500000	155.775000 
430.000000	156.920000 
430.500000	161.642000 
431.000000	165.188000 
431.500000	171.161000 
432.000000	170.179000 
432.500000	175.549000 
433.000000	180.785000 
433.500000	182.439000 
434.000000	185.961000 
434.500000	186.588000 
435.000000	186.712000 
435.500000	191.527000 
436.000000	194.972000 
436.500000	199.556000 
437.000000	200.617000 
437.500000	203.198000 
438.000000	202.896000 
438.500000	206.289000 
439.000000	205.900000 
439.500000	208.850000 
440.000000	211.993000 
440.500000	212.331000 
441.000000	211.515000 
441.500000	211.622000 
442.000000	211.037000 
442.500000	215.313000 
443.000000	215.097000 
443.500000	216.818000 
444.000000	213.711000 
444.500000	213.058000 
445.000000	214.206000 
445.500000	208.594000 
446.000000	209.857000 
446.500000	209.721000 
447.000000	209.108000 
447.500000	209.041000 
448.000000	205.759000 
448.500000	206.495000 
449.000000	202.210000 
449.500000	199.858000 
450.000000	201.509000 
450.500000	202.646000 
451.000000	197.989000 
451.500000	195.620000 
452.000000	195.596000 
452.500000	194.289000 
453.000000	189.734000 
453.500000	187.131000 
454.000000	187.177000 
454.500000	187.040000 
455.000000	184.882000 
455.500000	179.049000 
456.000000	179.963000 
456.500000	179.384000 
457.000000	176.151000 
457.500000	174.253000 
458.000000	173.456000 
458.500000	167.750000 
459.000000	164.501000 
459.500000	165.100000 
460.000000	163.639000 
460.500000	158.709000 
461.000000	158.129000 
461.500000	155.430000 
462.000000	154.024000 
462.500000	149.982000 
463.000000	148.322000 
463.500000	146.288000 
464.000000	147.207000 
464.500000	142.351000 
465.000000	141.126000 
465.500000	138.948000 
466.000000	137.207000 
466.500000	136.899000 
467.000000	133.863000 
467.500000	132.849000 
468.000000	129.636000 
468.500000	127.060000 
469.000000	123.788000 
469.500000	123.488000 
470.000000	121.670000 
470.500000	121.799000 
471.000000	119.856000 
471.500000	115.425000 
472.000000	112.935000 
472.500000	113.023000 
473.000000	110.755000 
473.500000	111.254000 
474.000000	108.443000 
474.500000	107.402000 
475.000000	105.957000 
475.500000	103.275000 
476.000000	101.755000 
476.500000	98.639000  
477.000000	98.629000  
477.500000	96.863000  
478.000000	94.608999  
478.500000	93.640000  
479.000000	91.459000  
479.500000	89.312000  
480.000000	89.700000  
480.500000	87.517000  
481.000000	86.511000  
481.500000	85.307000  
482.000000	82.980000  
482.500000	82.462000  
483.000000	81.575999  
483.500000	79.450999  
484.000000	80.090999  
484.500000	78.831000  
485.000000	75.554000  
485.500000	74.434000  
486.000000	72.700000  
486.500000	72.212000  
487.000000	69.834999  
487.500000	69.039000  
488.000000	67.379000  
488.500000	66.241000  
489.000000	67.012000  
489.500000	64.511000  
490.000000	63.055000  
490.500000	61.718000  
491.000000	60.650000  
491.500000	58.834000  
492.000000	59.029000  
492.500000	57.196000  
493.000000	55.069000  
493.500000	54.192000  
494.000000	53.319000  
494.500000	53.128000  
495.000000	51.266000  
495.500000	49.515000  
496.000000	48.768000  
496.500000	48.473000  
497.000000	48.338000  
497.500000	47.452000  
498.000000	45.840000  
498.500000	44.227000  
499.000000	43.356000  
499.500000	42.965000  
500.000000	43.340000  
500.500000	42.815000  
501.000000	41.467000  
501.500000	41.112000  
502.000000	39.476000  
502.500000	37.750000  
503.000000	38.692000  
503.500000	37.753000  
504.000000	36.726000  
504.500000	37.277000  
505.000000	36.643000  
505.500000	34.948000  
506.000000	35.035000  
506.500000	34.094000  
507.000000	32.506000  
507.500000	31.989000  
508.000000	31.689000  
508.500000	29.808000  
509.000000	29.611000  
509.500000	29.804000  
510.000000	29.181000  
510.500000	27.836000  
511.000000	28.000000  
511.500000	28.877000  
512.000000	26.797000  
512.500000	26.380000  
513.000000	26.438000  
513.500000	24.950000  
514.000000	25.028000  
514.500000	23.644000  
515.000000	22.911000  
515.500000	22.851000  
516.000000	22.928000  
516.500000	21.844000  
517.000000	21.581000  
517.500000	20.396000  
518.000000	20.681000  
518.500000	20.013000  
519.000000	19.680000  
519.500000	18.134000  
520.000000	18.694000  
520.500000	18.106000  
521.000000	17.765000  
521.500000	16.758000  
522.000000	16.428000  
522.500000	17.075000  
523.000000	16.048000  
523.500000	16.484000  
524.000000	15.276000  
524.500000	14.640000  
525.000000	14.053000  
525.500000	13.277000  
526.000000	13.644000  
526.500000	13.397000  
527.000000	13.046000  
527.500000	12.308000  
528.000000	12.077000  
528.500000	11.621000  
529.000000	11.122000  
529.500000	10.706000  
530.000000	10.785000  
530.500000	10.838000  
531.000000	10.422000  
531.500000	10.261000  
532.000000	10.718000  
532.500000	9.781000   
533.000000	9.590000   
533.500000	8.710000   
534.000000	8.500999   
534.500000	8.494000   
535.000000	8.074000   
535.500000	7.846000   
536.000000	7.117000   
536.500000	7.874000   
537.000000	7.380000   
537.500000	7.783000   
538.000000	7.104000   
538.500000	7.300000   
539.000000	7.288000   
539.500000	6.704000   
540.000000	6.240000   
540.500000	5.998000   
541.000000	6.197000   
541.500000	6.270000   
542.000000	5.243000   
542.500000	5.900000   
543.000000	5.528000   
543.500000	5.425000   
544.000000	4.962000   
544.500000	5.230000   
545.000000	5.208000   
545.500000	5.204000   
546.000000	5.044000   
546.500000	4.796000   
547.000000	4.460000   
547.500000	4.224000   
548.000000	4.168000   
548.500000	4.480000   
549.000000	4.540000   
549.500000	4.152000   
550.000000	3.984000   
550.500000	3.748000   
551.000000	4.252000   
551.500000	3.937000   
552.000000	3.626000   
552.500000	3.789000   
553.000000	3.409000   
553.500000	3.292000   
554.000000	3.754000   
554.500000	3.255000   
555.000000	3.538000   
555.500000	3.734000   
556.000000	3.168000   
556.500000	3.184000   
557.000000	2.990000   
557.500000	3.145000   
558.000000	2.677000   
558.500000	2.698000   
559.000000	2.542000   
559.500000	2.769000   
560.000000	2.641000   
560.500000	2.621000   
561.000000	2.486000   
561.500000	2.758000   
562.000000	2.324000   
562.500000	2.636000   
563.000000	2.443000   
563.500000	2.364000   
564.000000	2.547000   
564.500000	2.354000   
565.000000	2.352000   
565.500000	2.149000   
566.000000	2.016000   
566.500000	2.091000   
567.000000	2.199000   
567.500000	1.917000   
568.000000	2.171000   
568.500000	2.311000   
569.000000	2.080000   
569.500000	2.311000   
570.000000	2.101000   
570.500000	2.097000   
571.000000	2.172000   
571.500000	2.069000   
572.000000	2.160000   
572.500000	1.969000   
573.000000	1.917000   
573.500000	1.828000   
574.000000	1.759000   
574.500000	1.588000   
575.000000	1.741000   
575.500000	1.751000   
576.000000	1.690000   
576.500000	1.670000   
577.000000	1.550000   
577.500000	1.425000   
578.000000	1.584000   
578.500000	1.648000   
579.000000	1.551000   
579.500000	1.537000   
580.000000	1.690000   
580.500000	1.861000   
581.000000	1.522000   
581.500000	1.412000   
582.000000	1.514000   
582.500000	1.448000   
583.000000	1.279000   
583.500000	1.321000   
584.000000	1.504000   
584.500000	1.440000   
585.000000	1.352000   
585.500000	1.269000   
586.000000	1.461000   
586.500000	1.396000   
587.000000	1.551000   
587.500000	1.474000   
588.000000	1.241000   
588.500000	1.414000   
589.000000	1.205000   
589.500000	1.378000   
590.000000	1.116000   
590.500000	1.318000   
591.000000	1.238000   
591.500000	0.996000   
592.000000	1.282000   
592.500000	1.349000   
593.000000	1.097000   
593.500000	1.156000   
594.000000	1.122000   
594.500000	1.233000   
595.000000	0.971000   
595.500000	1.277000   
596.000000	1.329000   
596.500000	1.101000   
597.000000	1.131000   
597.500000	1.314000   
598.000000	1.058000   
598.500000	1.060000   

