PE FL                   SPECTRUM    ASCII       PEDS        1.60        
  -1
1DF3FB~1.TXT
18/01/22
11:53:05.00
18/01/22
11:53:05.00


598.500000
1









LS55
350.00
3.00
2.50
SCAN
1
20
100
100
0
60
0
1
0
1
7
ON
600 350 
1 0 0
#HDR
-1
-1
#GR
NM

0.00002384185791015625
0.0
400.000000
0.500000
398
8
200.131000
1.028000
#DATA
400.000000	8.779000   
400.500000	6.813000   
401.000000	7.548000   
401.500000	7.585000   
402.000000	7.971000   
402.500000	8.505000   
403.000000	8.667999   
403.500000	8.972000   
404.000000	9.499000   
404.500000	10.294000  
405.000000	11.209000  
405.500000	11.942000  
406.000000	13.060000  
406.500000	14.563000  
407.000000	14.984000  
407.500000	15.538000  
408.000000	17.960000  
408.500000	18.883000  
409.000000	19.807000  
409.500000	21.224000  
410.000000	22.682000  
410.500000	24.688000  
411.000000	26.715000  
411.500000	28.482000  
412.000000	29.074000  
412.500000	30.905000  
413.000000	32.911000  
413.500000	35.439000  
414.000000	38.545000  
414.500000	41.635000  
415.000000	44.651000  
415.500000	46.501000  
416.000000	49.018000  
416.500000	52.165000  
417.000000	56.139000  
417.500000	59.611000  
418.000000	61.634000  
418.500000	63.917000  
419.000000	67.679000  
419.500000	72.915000  
420.000000	76.485000  
420.500000	80.361000  
421.000000	83.331999  
421.500000	87.197000  
422.000000	90.540000  
422.500000	95.525000  
423.000000	100.899000 
423.500000	104.063000 
424.000000	109.691000 
424.500000	112.457000 
425.000000	115.248000 
425.500000	119.922000 
426.000000	122.191000 
426.500000	126.884000 
427.000000	130.725000 
427.500000	135.553000 
428.000000	138.841000 
428.500000	141.748000 
429.000000	144.328000 
429.500000	149.057000 
430.000000	151.270000 
430.500000	156.070000 
431.000000	158.288000 
431.500000	164.462000 
432.000000	165.421000 
432.500000	168.208000 
433.000000	171.229000 
433.500000	174.584000 
434.000000	173.878000 
434.500000	178.059000 
435.000000	179.822000 
435.500000	182.759000 
436.000000	184.011000 
436.500000	186.126000 
437.000000	188.277000 
437.500000	190.487000 
438.000000	189.787000 
438.500000	193.569000 
439.000000	194.414000 
439.500000	193.982000 
440.000000	195.532000 
440.500000	199.691000 
441.000000	199.385000 
441.500000	197.796000 
442.000000	198.633000 
442.500000	197.528000 
443.000000	196.913000 
443.500000	200.131000 
444.000000	199.610000 
444.500000	196.952000 
445.000000	196.444000 
445.500000	196.192000 
446.000000	198.981000 
446.500000	196.965000 
447.000000	193.984000 
447.500000	194.274000 
448.000000	194.637000 
448.500000	192.604000 
449.000000	191.582000 
449.500000	189.138000 
450.000000	188.693000 
450.500000	187.243000 
451.000000	186.254000 
451.500000	183.361000 
452.000000	184.268000 
452.500000	180.636000 
453.000000	177.101000 
453.500000	177.704000 
454.000000	175.700000 
454.500000	175.953000 
455.000000	175.903000 
455.500000	171.303000 
456.000000	168.476000 
456.500000	166.293000 
457.000000	166.710000 
457.500000	165.617000 
458.000000	163.411000 
458.500000	161.717000 
459.000000	159.642000 
459.500000	154.772000 
460.000000	155.463000 
460.500000	152.004000 
461.000000	150.364000 
461.500000	148.209000 
462.000000	146.712000 
462.500000	145.479000 
463.000000	143.049000 
463.500000	141.502000 
464.000000	139.128000 
464.500000	137.450000 
465.000000	135.097000 
465.500000	134.469000 
466.000000	132.938000 
466.500000	128.531000 
467.000000	126.839000 
467.500000	125.799000 
468.000000	123.351000 
468.500000	122.989000 
469.000000	120.218000 
469.500000	119.602000 
470.000000	119.031000 
470.500000	116.842000 
471.000000	116.900000 
471.500000	113.540000 
472.000000	112.083000 
472.500000	113.111000 
473.000000	109.698000 
473.500000	108.294000 
474.000000	104.968000 
474.500000	101.538000 
475.000000	100.794000 
475.500000	99.489999  
476.000000	99.425000  
476.500000	96.572000  
477.000000	97.137000  
477.500000	93.852999  
478.000000	92.936000  
478.500000	93.450999  
479.000000	90.005000  
479.500000	89.020000  
480.000000	88.132000  
480.500000	86.040000  
481.000000	85.614000  
481.500000	83.738000  
482.000000	82.364999  
482.500000	82.028000  
483.000000	80.834000  
483.500000	79.944999  
484.000000	77.583000  
484.500000	76.509000  
485.000000	74.194000  
485.500000	74.700999  
486.000000	74.059000  
486.500000	71.697000  
487.000000	72.166000  
487.500000	68.751000  
488.000000	67.921000  
488.500000	68.547000  
489.000000	66.084000  
489.500000	65.652000  
490.000000	64.849999  
490.500000	64.474999  
491.000000	62.136000  
491.500000	60.659000  
492.000000	59.160000  
492.500000	60.591000  
493.000000	59.038000  
493.500000	57.220000  
494.000000	55.124000  
494.500000	53.910000  
495.000000	53.271000  
495.500000	53.914000  
496.000000	52.627000  
496.500000	51.163000  
497.000000	50.629000  
497.500000	50.604000  
498.000000	48.841000  
498.500000	46.474000  
499.000000	47.055000  
499.500000	47.042000  
500.000000	45.854000  
500.500000	44.828000  
501.000000	44.855000  
501.500000	44.619000  
502.000000	42.196000  
502.500000	40.668000  
503.000000	40.411000  
503.500000	40.224000  
504.000000	38.860000  
504.500000	38.419000  
505.000000	37.410000  
505.500000	37.032000  
506.000000	36.520000  
506.500000	36.196000  
507.000000	34.865000  
507.500000	34.502000  
508.000000	32.912000  
508.500000	34.478000  
509.000000	34.308000  
509.500000	32.848000  
510.000000	31.676000  
510.500000	30.848000  
511.000000	30.214000  
511.500000	29.225000  
512.000000	30.513000  
512.500000	28.534000  
513.000000	28.573000  
513.500000	26.704000  
514.000000	27.197000  
514.500000	26.341000  
515.000000	26.251000  
515.500000	26.249000  
516.000000	25.013000  
516.500000	24.324000  
517.000000	23.860000  
517.500000	23.430000  
518.000000	22.737000  
518.500000	21.710000  
519.000000	20.437000  
519.500000	20.790000  
520.000000	20.390000  
520.500000	20.080000  
521.000000	19.299000  
521.500000	18.606000  
522.000000	18.604000  
522.500000	18.152000  
523.000000	17.629000  
523.500000	17.461000  
524.000000	16.405000  
524.500000	17.029000  
525.000000	16.008000  
525.500000	16.010000  
526.000000	15.890000  
526.500000	15.364000  
527.000000	14.178000  
527.500000	13.801000  
528.000000	14.123000  
528.500000	13.463000  
529.000000	12.609000  
529.500000	12.402000  
530.000000	13.014000  
530.500000	12.535000  
531.000000	11.195000  
531.500000	11.427000  
532.000000	10.577000  
532.500000	10.049000  
533.000000	10.391000  
533.500000	10.085000  
534.000000	9.324999   
534.500000	9.409000   
535.000000	9.476000   
535.500000	9.057000   
536.000000	8.813000   
536.500000	8.847000   
537.000000	9.201000   
537.500000	8.347000   
538.000000	7.725000   
538.500000	7.403000   
539.000000	7.685000   
539.500000	7.392000   
540.000000	7.427000   
540.500000	7.210000   
541.000000	6.842000   
541.500000	7.014000   
542.000000	6.787000   
542.500000	6.243000   
543.000000	6.727000   
543.500000	6.881000   
544.000000	6.326000   
544.500000	5.943000   
545.000000	5.779000   
545.500000	5.610000   
546.000000	5.206000   
546.500000	4.803000   
547.000000	4.979000   
547.500000	5.055000   
548.000000	4.970000   
548.500000	4.675000   
549.000000	4.711000   
549.500000	4.616000   
550.000000	4.455000   
550.500000	4.345000   
551.000000	4.049000   
551.500000	4.418000   
552.000000	4.093000   
552.500000	4.056000   
553.000000	4.433000   
553.500000	3.855000   
554.000000	3.661000   
554.500000	3.671000   
555.000000	3.858000   
555.500000	3.645000   
556.000000	3.910000   
556.500000	3.539000   
557.000000	3.536000   
557.500000	3.245000   
558.000000	3.487000   
558.500000	3.460000   
559.000000	3.571000   
559.500000	3.485000   
560.000000	3.141000   
560.500000	3.225000   
561.000000	3.267000   
561.500000	2.567000   
562.000000	2.923000   
562.500000	2.719000   
563.000000	2.915000   
563.500000	2.974000   
564.000000	2.736000   
564.500000	2.737000   
565.000000	2.505000   
565.500000	2.721000   
566.000000	2.618000   
566.500000	2.518000   
567.000000	2.558000   
567.500000	2.585000   
568.000000	2.373000   
568.500000	2.197000   
569.000000	2.325000   
569.500000	2.236000   
570.000000	2.546000   
570.500000	2.042000   
571.000000	2.449000   
571.500000	1.821000   
572.000000	2.125000   
572.500000	1.875000   
573.000000	1.938000   
573.500000	2.201000   
574.000000	2.266000   
574.500000	1.886000   
575.000000	1.927000   
575.500000	1.767000   
576.000000	1.576000   
576.500000	1.998000   
577.000000	1.929000   
577.500000	1.730000   
578.000000	1.658000   
578.500000	1.623000   
579.000000	1.700000   
579.500000	1.860000   
580.000000	1.940000   
580.500000	1.432000   
581.000000	1.652000   
581.500000	1.740000   
582.000000	1.662000   
582.500000	1.690000   
583.000000	1.509000   
583.500000	1.496000   
584.000000	1.612000   
584.500000	1.479000   
585.000000	1.322000   
585.500000	1.455000   
586.000000	1.433000   
586.500000	1.366000   
587.000000	1.523000   
587.500000	1.378000   
588.000000	1.367000   
588.500000	1.404000   
589.000000	1.299000   
589.500000	1.285000   
590.000000	1.349000   
590.500000	1.086000   
591.000000	1.150000   
591.500000	1.196000   
592.000000	1.251000   
592.500000	1.251000   
593.000000	1.293000   
593.500000	1.434000   
594.000000	1.261000   
594.500000	1.198000   
595.000000	1.568000   
595.500000	1.181000   
596.000000	1.172000   
596.500000	1.028000   
597.000000	1.130000   
597.500000	1.169000   
598.000000	1.075000   
598.500000	1.372000   

