PE FL                   SPECTRUM    ASCII       PEDS        1.60        
  -1
1DF7FB~1.TXT
18/01/22
12:37:31.00
18/01/22
12:37:31.00


598.500000
1









LS55
350.00
3.00
2.50
SCAN
1
20
100
100
0
60
0
1
0
1
7
ON
600 350 
1 0 0
#HDR
-1
-1
#GR
NM

0.00002384185791015625
0.0
400.000000
0.500000
398
8
141.510000
1.523000
#DATA
400.000000	10.026000  
400.500000	12.102000  
401.000000	12.498000  
401.500000	12.906000  
402.000000	12.928000  
402.500000	13.087000  
403.000000	13.869000  
403.500000	14.854000  
404.000000	16.675000  
404.500000	16.620000  
405.000000	17.332000  
405.500000	19.225000  
406.000000	21.342000  
406.500000	21.593000  
407.000000	23.080000  
407.500000	24.168000  
408.000000	24.901000  
408.500000	26.929000  
409.000000	28.345000  
409.500000	29.626000  
410.000000	31.536000  
410.500000	33.130000  
411.000000	34.836000  
411.500000	36.124000  
412.000000	36.867000  
412.500000	39.468000  
413.000000	41.645000  
413.500000	44.247000  
414.000000	46.799000  
414.500000	49.367000  
415.000000	50.617000  
415.500000	53.673000  
416.000000	56.108000  
416.500000	57.373000  
417.000000	58.548000  
417.500000	62.033000  
418.000000	63.870000  
418.500000	67.450000  
419.000000	70.233999  
419.500000	71.102999  
420.000000	71.732000  
420.500000	76.108999  
421.000000	80.388000  
421.500000	81.316999  
422.000000	81.130000  
422.500000	87.583000  
423.000000	90.086000  
423.500000	92.450000  
424.000000	92.315000  
424.500000	95.352999  
425.000000	96.709000  
425.500000	99.471999  
426.000000	99.136000  
426.500000	101.840000 
427.000000	104.113000 
427.500000	105.086000 
428.000000	107.121000 
428.500000	110.204000 
429.000000	111.184000 
429.500000	113.243000 
430.000000	115.506000 
430.500000	117.041000 
431.000000	118.113000 
431.500000	121.446000 
432.000000	122.169000 
432.500000	122.554000 
433.000000	124.155000 
433.500000	124.639000 
434.000000	125.889000 
434.500000	127.751000 
435.000000	130.414000 
435.500000	131.412000 
436.000000	131.656000 
436.500000	131.796000 
437.000000	132.783000 
437.500000	133.895000 
438.000000	135.023000 
438.500000	132.740000 
439.000000	135.445000 
439.500000	137.243000 
440.000000	136.262000 
440.500000	137.259000 
441.000000	139.486000 
441.500000	138.749000 
442.000000	138.861000 
442.500000	139.347000 
443.000000	137.668000 
443.500000	138.368000 
444.000000	141.510000 
444.500000	140.168000 
445.000000	139.630000 
445.500000	139.351000 
446.000000	139.140000 
446.500000	138.878000 
447.000000	139.980000 
447.500000	138.522000 
448.000000	138.975000 
448.500000	138.060000 
449.000000	138.800000 
449.500000	139.049000 
450.000000	137.805000 
450.500000	137.961000 
451.000000	137.750000 
451.500000	135.173000 
452.000000	137.732000 
452.500000	135.710000 
453.000000	136.992000 
453.500000	136.183000 
454.000000	134.351000 
454.500000	132.684000 
455.000000	132.157000 
455.500000	132.163000 
456.000000	130.782000 
456.500000	132.165000 
457.000000	129.092000 
457.500000	128.396000 
458.000000	129.735000 
458.500000	130.071000 
459.000000	128.380000 
459.500000	125.223000 
460.000000	126.138000 
460.500000	125.979000 
461.000000	123.684000 
461.500000	122.516000 
462.000000	123.097000 
462.500000	121.963000 
463.000000	121.709000 
463.500000	121.722000 
464.000000	122.955000 
464.500000	120.037000 
465.000000	118.438000 
465.500000	117.055000 
466.000000	118.181000 
466.500000	118.269000 
467.000000	116.469000 
467.500000	115.742000 
468.000000	118.218000 
468.500000	114.896000 
469.000000	113.427000 
469.500000	113.020000 
470.000000	114.309000 
470.500000	112.301000 
471.000000	110.430000 
471.500000	112.079000 
472.000000	111.453000 
472.500000	109.658000 
473.000000	108.662000 
473.500000	109.752000 
474.000000	108.484000 
474.500000	107.480000 
475.000000	107.573000 
475.500000	105.988000 
476.000000	104.766000 
476.500000	106.567000 
477.000000	104.785000 
477.500000	102.567000 
478.000000	102.973000 
478.500000	101.629000 
479.000000	101.005000 
479.500000	101.802000 
480.000000	100.866000 
480.500000	100.635000 
481.000000	100.460000 
481.500000	98.401000  
482.000000	98.480999  
482.500000	98.134000  
483.000000	97.203000  
483.500000	96.455000  
484.000000	94.724999  
484.500000	94.459999  
485.000000	94.403000  
485.500000	93.843000  
486.000000	92.834000  
486.500000	93.509000  
487.000000	93.563000  
487.500000	91.391000  
488.000000	89.798000  
488.500000	90.757000  
489.000000	88.465000  
489.500000	87.971999  
490.000000	87.531000  
490.500000	86.367999  
491.000000	85.631000  
491.500000	85.087999  
492.000000	84.300000  
492.500000	83.983000  
493.000000	83.407000  
493.500000	83.683000  
494.000000	80.971999  
494.500000	82.658000  
495.000000	81.229000  
495.500000	80.492999  
496.000000	79.822999  
496.500000	78.030000  
497.000000	76.880000  
497.500000	75.427000  
498.000000	76.438999  
498.500000	77.937000  
499.000000	74.465999  
499.500000	74.146000  
500.000000	73.955000  
500.500000	73.093000  
501.000000	70.816999  
501.500000	70.629000  
502.000000	69.480000  
502.500000	69.515000  
503.000000	69.733000  
503.500000	69.827000  
504.000000	67.895000  
504.500000	65.751000  
505.000000	65.768000  
505.500000	65.697000  
506.000000	64.289000  
506.500000	64.654000  
507.000000	63.769000  
507.500000	61.734000  
508.000000	61.595000  
508.500000	61.321000  
509.000000	60.490000  
509.500000	60.516000  
510.000000	60.043000  
510.500000	57.685000  
511.000000	56.484000  
511.500000	56.053000  
512.000000	54.722000  
512.500000	55.416000  
513.000000	54.324000  
513.500000	52.983000  
514.000000	52.394000  
514.500000	50.220000  
515.000000	50.607000  
515.500000	48.727000  
516.000000	48.522000  
516.500000	47.758000  
517.000000	47.010000  
517.500000	45.311000  
518.000000	45.767000  
518.500000	44.106000  
519.000000	43.933000  
519.500000	43.272000  
520.000000	42.578000  
520.500000	41.880000  
521.000000	39.640000  
521.500000	38.707000  
522.000000	39.354000  
522.500000	38.400000  
523.000000	37.700000  
523.500000	36.404000  
524.000000	34.553000  
524.500000	34.433000  
525.000000	34.765000  
525.500000	32.998000  
526.000000	32.385000  
526.500000	32.094000  
527.000000	30.331000  
527.500000	29.917000  
528.000000	28.764000  
528.500000	28.272000  
529.000000	27.391000  
529.500000	26.580000  
530.000000	26.102000  
530.500000	25.626000  
531.000000	24.704000  
531.500000	24.480000  
532.000000	24.613000  
532.500000	22.924000  
533.000000	23.057000  
533.500000	22.848000  
534.000000	21.197000  
534.500000	20.831000  
535.000000	20.412000  
535.500000	20.509000  
536.000000	19.840000  
536.500000	18.983000  
537.000000	18.924000  
537.500000	18.297000  
538.000000	17.695000  
538.500000	17.578000  
539.000000	16.765000  
539.500000	16.903000  
540.000000	16.324000  
540.500000	16.041000  
541.000000	15.130000  
541.500000	14.743000  
542.000000	15.262000  
542.500000	14.776000  
543.000000	14.394000  
543.500000	13.722000  
544.000000	13.992000  
544.500000	13.954000  
545.000000	12.750000  
545.500000	13.194000  
546.000000	12.475000  
546.500000	12.101000  
547.000000	11.834000  
547.500000	11.229000  
548.000000	11.284000  
548.500000	11.449000  
549.000000	11.317000  
549.500000	11.002000  
550.000000	10.216000  
550.500000	10.332000  
551.000000	10.110000  
551.500000	9.500000   
552.000000	9.212000   
552.500000	9.754000   
553.000000	9.161000   
553.500000	8.749000   
554.000000	8.534000   
554.500000	8.263000   
555.000000	8.695000   
555.500000	7.943000   
556.000000	7.895000   
556.500000	8.071000   
557.000000	8.170999   
557.500000	7.736000   
558.000000	7.400000   
558.500000	7.146000   
559.000000	6.982000   
559.500000	7.095000   
560.000000	6.929000   
560.500000	6.813000   
561.000000	6.762000   
561.500000	6.220000   
562.000000	6.246000   
562.500000	6.592000   
563.000000	6.295000   
563.500000	6.213000   
564.000000	6.119000   
564.500000	5.754000   
565.000000	5.745000   
565.500000	5.633000   
566.000000	5.558000   
566.500000	5.522000   
567.000000	5.456000   
567.500000	5.728000   
568.000000	5.271000   
568.500000	4.843000   
569.000000	4.814000   
569.500000	4.575000   
570.000000	4.449000   
570.500000	4.956000   
571.000000	4.566000   
571.500000	4.201000   
572.000000	4.417000   
572.500000	4.446000   
573.000000	4.482000   
573.500000	4.022000   
574.000000	4.097000   
574.500000	4.052000   
575.000000	3.915000   
575.500000	4.079000   
576.000000	3.834000   
576.500000	3.745000   
577.000000	3.779000   
577.500000	3.807000   
578.000000	3.111000   
578.500000	3.083000   
579.000000	3.240000   
579.500000	2.996000   
580.000000	2.528000   
580.500000	3.128000   
581.000000	3.166000   
581.500000	2.879000   
582.000000	2.788000   
582.500000	3.040000   
583.000000	3.010000   
583.500000	2.837000   
584.000000	2.674000   
584.500000	2.417000   
585.000000	2.689000   
585.500000	2.172000   
586.000000	2.272000   
586.500000	2.268000   
587.000000	2.210000   
587.500000	2.117000   
588.000000	2.266000   
588.500000	2.069000   
589.000000	2.203000   
589.500000	2.121000   
590.000000	2.182000   
590.500000	2.083000   
591.000000	2.018000   
591.500000	2.071000   
592.000000	1.975000   
592.500000	2.151000   
593.000000	1.948000   
593.500000	1.883000   
594.000000	1.881000   
594.500000	1.876000   
595.000000	1.634000   
595.500000	1.523000   
596.000000	1.839000   
596.500000	1.852000   
597.000000	1.729000   
597.500000	1.837000   
598.000000	1.630000   
598.500000	1.862000   

