PE FL                   SPECTRUM    ASCII       PEDS        1.60        
  -1
DLEA78~1.TXT
18/01/17
11:52:08.00
18/01/17
11:52:08.00


598.500000
1









LS55
350.00
3.00
2.50
SCAN
1
20
100
100
0
60
0
1
0
1
7
ON
600 350 
1 0 0
#HDR
-1
-1
#GR
NM

0.00002384185791015625
0.0
400.000000
0.500000
398
8
707.400000
5.820000
#DATA
400.000000	183.232000 
400.500000	200.145000 
401.000000	206.805000 
401.500000	214.239000 
402.000000	222.474000 
402.500000	233.636000 
403.000000	243.163000 
403.500000	252.224000 
404.000000	261.758000 
404.500000	272.625000 
405.000000	286.135000 
405.500000	295.846000 
406.000000	305.709000 
406.500000	318.361000 
407.000000	328.236000 
407.500000	338.733000 
408.000000	349.948000 
408.500000	364.032000 
409.000000	372.525000 
409.500000	384.247000 
410.000000	395.198000 
410.500000	407.057000 
411.000000	422.320000 
411.500000	434.113000 
412.000000	444.907000 
412.500000	450.903000 
413.000000	469.722000 
413.500000	483.740000 
414.000000	491.852000 
414.500000	502.884000 
415.000000	513.267000 
415.500000	525.912000 
416.000000	538.791000 
416.500000	548.047000 
417.000000	557.404000 
417.500000	571.965000 
418.000000	579.766000 
418.500000	584.374000 
419.000000	593.044000 
419.500000	603.881000 
420.000000	613.309000 
420.500000	618.427000 
421.000000	623.641000 
421.500000	632.198000 
422.000000	641.117000 
422.500000	649.386999 
423.000000	651.954000 
423.500000	657.552000 
424.000000	663.612000 
424.500000	666.235000 
425.000000	670.601000 
425.500000	668.806000 
426.000000	671.950000 
426.500000	680.942000 
427.000000	681.364000 
427.500000	683.714000 
428.000000	695.557000 
428.500000	686.894000 
429.000000	688.800000 
429.500000	693.353000 
430.000000	700.261000 
430.500000	705.005000 
431.000000	700.993000 
431.500000	698.140000 
432.000000	704.268000 
432.500000	707.400000 
433.000000	704.689000 
433.500000	702.811000 
434.000000	705.454000 
434.500000	704.932000 
435.000000	706.783000 
435.500000	702.892000 
436.000000	702.431000 
436.500000	704.179999 
437.000000	704.907000 
437.500000	701.776000 
438.000000	696.654000 
438.500000	696.389000 
439.000000	694.403000 
439.500000	695.017000 
440.000000	693.454000 
440.500000	691.495000 
441.000000	688.260000 
441.500000	683.900000 
442.000000	680.044000 
442.500000	677.205000 
443.000000	670.933000 
443.500000	667.792000 
444.000000	664.040000 
444.500000	657.715000 
445.000000	655.776000 
445.500000	652.384000 
446.000000	645.214000 
446.500000	642.505000 
447.000000	638.595000 
447.500000	631.568000 
448.000000	625.443000 
448.500000	620.597000 
449.000000	617.728000 
449.500000	612.964000 
450.000000	608.589000 
450.500000	602.868000 
451.000000	592.898000 
451.500000	587.239000 
452.000000	581.011000 
452.500000	577.075000 
453.000000	568.765000 
453.500000	564.917000 
454.000000	556.939000 
454.500000	548.071000 
455.000000	545.961000 
455.500000	536.809000 
456.000000	530.489000 
456.500000	528.470000 
457.000000	519.878000 
457.500000	511.929000 
458.000000	502.682000 
458.500000	499.187000 
459.000000	498.408000 
459.500000	488.574000 
460.000000	482.746000 
460.500000	478.575000 
461.000000	468.356000 
461.500000	460.859000 
462.000000	457.959000 
462.500000	453.996000 
463.000000	449.633000 
463.500000	443.345000 
464.000000	438.641000 
464.500000	434.547000 
465.000000	427.795000 
465.500000	423.693000 
466.000000	420.736000 
466.500000	416.083000 
467.000000	408.429000 
467.500000	403.690000 
468.000000	398.781000 
468.500000	397.071000 
469.000000	394.364000 
469.500000	387.402000 
470.000000	384.212000 
470.500000	379.360000 
471.000000	374.147000 
471.500000	371.387000 
472.000000	366.623000 
472.500000	360.446000 
473.000000	358.773000 
473.500000	358.977000 
474.000000	353.008000 
474.500000	346.541000 
475.000000	345.371000 
475.500000	340.329000 
476.000000	338.551000 
476.500000	331.286000 
477.000000	327.205000 
477.500000	323.319000 
478.000000	321.131000 
478.500000	320.747000 
479.000000	317.804000 
479.500000	316.521000 
480.000000	311.575000 
480.500000	309.061000 
481.000000	304.880000 
481.500000	300.904000 
482.000000	297.302000 
482.500000	294.733000 
483.000000	290.794000 
483.500000	286.111000 
484.000000	284.617000 
484.500000	283.304000 
485.000000	280.330000 
485.500000	277.939000 
486.000000	277.602000 
486.500000	270.181000 
487.000000	268.060000 
487.500000	266.125000 
488.000000	260.291000 
488.500000	259.077000 
489.000000	256.225000 
489.500000	252.969000 
490.000000	248.557000 
490.500000	247.815000 
491.000000	245.683000 
491.500000	243.230000 
492.000000	236.689000 
492.500000	237.363000 
493.000000	233.241000 
493.500000	229.090000 
494.000000	228.413000 
494.500000	226.223000 
495.000000	224.517000 
495.500000	219.803000 
496.000000	217.846000 
496.500000	220.171000 
497.000000	216.437000 
497.500000	209.947000 
498.000000	208.193000 
498.500000	206.843000 
499.000000	202.646000 
499.500000	202.128000 
500.000000	198.234000 
500.500000	198.008000 
501.000000	193.164000 
501.500000	192.631000 
502.000000	188.169000 
502.500000	189.409000 
503.000000	185.126000 
503.500000	186.936000 
504.000000	182.807000 
504.500000	180.911000 
505.000000	178.107000 
505.500000	177.099000 
506.000000	172.655000 
506.500000	170.011000 
507.000000	171.254000 
507.500000	166.461000 
508.000000	163.429000 
508.500000	162.062000 
509.000000	159.063000 
509.500000	158.353000 
510.000000	154.321000 
510.500000	154.857000 
511.000000	154.400000 
511.500000	150.558000 
512.000000	149.668000 
512.500000	144.023000 
513.000000	143.522000 
513.500000	141.845000 
514.000000	140.142000 
514.500000	137.629000 
515.000000	134.541000 
515.500000	131.067000 
516.000000	127.443000 
516.500000	126.506000 
517.000000	124.660000 
517.500000	125.597000 
518.000000	122.537000 
518.500000	120.272000 
519.000000	115.736000 
519.500000	115.483000 
520.000000	111.851000 
520.500000	108.395000 
521.000000	106.195000 
521.500000	103.332000 
522.000000	103.124000 
522.500000	101.562000 
523.000000	99.020000  
523.500000	94.973000  
524.000000	93.117999  
524.500000	91.123000  
525.000000	88.688000  
525.500000	88.649000  
526.000000	85.343000  
526.500000	82.819999  
527.000000	81.878000  
527.500000	79.313000  
528.000000	77.273000  
528.500000	75.779000  
529.000000	75.389000  
529.500000	73.608999  
530.000000	71.426000  
530.500000	69.040000  
531.000000	68.239000  
531.500000	64.943000  
532.000000	62.934000  
532.500000	61.682000  
533.000000	60.229000  
533.500000	59.230000  
534.000000	57.033000  
534.500000	56.819000  
535.000000	55.200000  
535.500000	54.322000  
536.000000	52.074000  
536.500000	50.873000  
537.000000	49.608000  
537.500000	48.746000  
538.000000	48.319000  
538.500000	46.069000  
539.000000	45.908000  
539.500000	44.380000  
540.000000	42.799000  
540.500000	42.282000  
541.000000	41.364000  
541.500000	40.252000  
542.000000	39.274000  
542.500000	37.985000  
543.000000	38.186000  
543.500000	37.652000  
544.000000	36.441000  
544.500000	35.064000  
545.000000	35.971000  
545.500000	34.218000  
546.000000	33.584000  
546.500000	32.514000  
547.000000	32.426000  
547.500000	30.319000  
548.000000	29.798000  
548.500000	30.959000  
549.000000	29.293000  
549.500000	28.795000  
550.000000	28.566000  
550.500000	27.386000  
551.000000	27.541000  
551.500000	27.550000  
552.000000	26.135000  
552.500000	25.419000  
553.000000	26.080000  
553.500000	24.963000  
554.000000	24.846000  
554.500000	24.323000  
555.000000	23.109000  
555.500000	22.499000  
556.000000	21.675000  
556.500000	21.149000  
557.000000	20.889000  
557.500000	21.014000  
558.000000	21.078000  
558.500000	20.445000  
559.000000	20.251000  
559.500000	19.945000  
560.000000	19.358000  
560.500000	18.905000  
561.000000	18.237000  
561.500000	18.464000  
562.000000	17.817000  
562.500000	17.759000  
563.000000	17.679000  
563.500000	17.663000  
564.000000	16.788000  
564.500000	16.158000  
565.000000	15.604000  
565.500000	15.636000  
566.000000	15.663000  
566.500000	15.337000  
567.000000	15.326000  
567.500000	15.010000  
568.000000	14.714000  
568.500000	14.982000  
569.000000	13.675000  
569.500000	14.105000  
570.000000	13.232000  
570.500000	13.106000  
571.000000	13.587000  
571.500000	12.506000  
572.000000	12.333000  
572.500000	12.124000  
573.000000	12.469000  
573.500000	12.425000  
574.000000	11.737000  
574.500000	11.660000  
575.000000	11.364000  
575.500000	11.312000  
576.000000	11.461000  
576.500000	10.848000  
577.000000	10.434000  
577.500000	9.943000   
578.000000	10.006000  
578.500000	10.298000  
579.000000	10.312000  
579.500000	10.165000  
580.000000	9.919000   
580.500000	9.086000   
581.000000	8.938000   
581.500000	9.470000   
582.000000	9.124000   
582.500000	8.747999   
583.000000	8.526000   
583.500000	9.092000   
584.000000	7.869000   
584.500000	8.175000   
585.000000	8.128000   
585.500000	8.266999   
586.000000	8.619000   
586.500000	8.317000   
587.000000	8.089000   
587.500000	7.916000   
588.000000	7.417000   
588.500000	7.828000   
589.000000	7.323000   
589.500000	7.650000   
590.000000	7.477000   
590.500000	7.174000   
591.000000	7.035000   
591.500000	7.068000   
592.000000	6.967000   
592.500000	7.013000   
593.000000	7.056000   
593.500000	6.791000   
594.000000	6.584000   
594.500000	6.295000   
595.000000	6.080000   
595.500000	6.073000   
596.000000	6.193000   
596.500000	6.442000   
597.000000	6.171000   
597.500000	6.440000   
598.000000	5.820000   
598.500000	5.887000   

