PE FL                   SPECTRUM    ASCII       PEDS        1.60        
  -1
DLPC_D~4.TXT
18/03/08
14:40:58.00
18/03/08
14:40:58.00


596.500000
1









LS55
350.00
11.00
2.90
SCAN
1
20
100
100
0
60
0
1
0
1
7
ON
600 350 
1 0 0
#HDR
-1
-1
#GR
NM

0.00002384185791015625
0.0
400.000000
0.500000
394
8
862.633001
3.895804
#DATA
400.000000	75.141999  
400.500000	82.957532  
401.000000	90.556327  
401.500000	98.011655  
402.000000	105.415096 
402.500000	112.911147 
403.000000	120.784836 
403.500000	129.143637 
404.000000	137.924518 
404.500000	147.110432 
405.000000	156.611245 
405.500000	166.389695 
406.000000	176.378708 
406.500000	186.574163 
407.000000	196.936559 
407.500000	207.486471 
408.000000	218.105638 
408.500000	228.930990 
409.000000	240.003154 
409.500000	251.507693 
410.000000	263.444235 
410.500000	275.818550 
411.000000	288.362588 
411.500000	301.131352 
412.000000	314.165227 
412.500000	327.619264 
413.000000	341.618984 
413.500000	356.272861 
414.000000	371.285835 
414.500000	386.477977 
415.000000	401.678726 
415.500000	416.870188 
416.000000	432.146403 
416.500000	447.680283 
417.000000	463.434256 
417.500000	479.239735 
418.000000	495.010810 
418.500000	510.660694 
419.000000	526.392654 
419.500000	542.326581 
420.000000	558.651602 
420.500000	575.207871 
421.000000	591.844718 
421.500000	608.145817 
422.000000	623.943854 
422.500000	638.944231 
423.000000	653.228641 
423.500000	666.850354 
424.000000	680.063386 
424.500000	692.696433 
425.000000	704.775700 
425.500000	716.154691 
426.000000	726.890020 
426.500000	737.065073 
427.000000	746.949995 
427.500000	756.495040 
428.000000	765.636944 
428.500000	774.351874 
429.000000	782.684577 
429.500000	790.649502 
430.000000	798.409596 
430.500000	805.839652 
431.000000	812.632442 
431.500000	818.636523 
432.000000	823.999474 
432.500000	828.871969 
433.000000	833.507083 
433.500000	838.094514 
434.000000	842.510595 
434.500000	846.467474 
435.000000	849.937644 
435.500000	852.977730 
436.000000	855.622767 
436.500000	857.953562 
437.000000	860.027256 
437.500000	861.580034 
438.000000	862.405856 
438.500000	862.633001 
439.000000	862.390224 
439.500000	861.736377 
440.000000	860.821195 
440.500000	859.571451 
441.000000	857.721675 
441.500000	855.427111 
442.000000	852.752705 
442.500000	849.670442 
443.000000	846.326804 
443.500000	842.733376 
444.000000	838.604676 
444.500000	834.027559 
445.000000	829.132164 
445.500000	823.882057 
446.000000	818.487557 
446.500000	813.002676 
447.000000	807.298905 
447.500000	801.504658 
448.000000	795.571827 
448.500000	789.421578 
449.000000	783.161126 
449.500000	776.726291 
450.000000	770.113267 
450.500000	763.462214 
451.000000	756.636875 
451.500000	749.712086 
452.000000	742.607598 
452.500000	735.271608 
453.000000	727.784121 
453.500000	720.247958 
454.000000	712.553400 
454.500000	704.899781 
455.000000	697.247085 
455.500000	689.456111 
456.000000	681.761712 
456.500000	674.043781 
457.000000	666.208825 
457.500000	658.429333 
458.000000	650.762231 
458.500000	642.942677 
459.000000	635.063691 
459.500000	626.936135 
460.000000	618.651608 
460.500000	610.404234 
461.000000	602.545965 
461.500000	594.994972 
462.000000	587.695453 
462.500000	580.323980 
463.000000	572.863059 
463.500000	565.478882 
464.000000	558.394661 
464.500000	551.696075 
465.000000	545.378418 
465.500000	539.175728 
466.000000	532.976273 
466.500000	526.711680 
467.000000	520.444152 
467.500000	514.191396 
468.000000	508.012278 
468.500000	502.001525 
469.000000	496.216670 
469.500000	490.652163 
470.000000	485.268931 
470.500000	479.961089 
471.000000	474.565500 
471.500000	469.148736 
472.000000	463.830794 
472.500000	458.638163 
473.000000	453.582485 
473.500000	448.549220 
474.000000	443.393938 
474.500000	438.169584 
475.000000	432.865167 
475.500000	427.639366 
476.000000	422.595022 
476.500000	417.725299 
477.000000	412.979251 
477.500000	408.279817 
478.000000	403.517981 
478.500000	398.710439 
479.000000	393.916087 
479.500000	389.173711 
480.000000	384.539006 
480.500000	380.056917 
481.000000	375.675039 
481.500000	371.313821 
482.000000	366.894836 
482.500000	362.436059 
483.000000	357.945580 
483.500000	353.447778 
484.000000	348.995538 
484.500000	344.533443 
485.000000	340.065496 
485.500000	335.588066 
486.000000	331.136294 
486.500000	326.827993 
487.000000	322.719828 
487.500000	318.710765 
488.000000	314.711921 
488.500000	310.601099 
489.000000	306.360757 
489.500000	302.136336 
490.000000	297.973216 
490.500000	293.883066 
491.000000	289.859655 
491.500000	285.846104 
492.000000	281.769818 
492.500000	277.738207 
493.000000	273.744195 
493.500000	269.862238 
494.000000	266.051973 
494.500000	262.334013 
495.000000	258.670854 
495.500000	255.081485 
496.000000	251.497447 
496.500000	247.934768 
497.000000	244.377523 
497.500000	240.838263 
498.000000	237.402218 
498.500000	234.082725 
499.000000	230.797651 
499.500000	227.552008 
500.000000	224.386319 
500.500000	221.218866 
501.000000	218.095567 
501.500000	215.051545 
502.000000	212.039994 
502.500000	209.062345 
503.000000	206.169571 
503.500000	203.314309 
504.000000	200.477599 
504.500000	197.679907 
505.000000	194.852736 
505.500000	191.989086 
506.000000	189.169211 
506.500000	186.415799 
507.000000	183.720969 
507.500000	181.083577 
508.000000	178.503196 
508.500000	175.959767 
509.000000	173.458981 
509.500000	170.966902 
510.000000	168.460507 
510.500000	165.904548 
511.000000	163.299172 
511.500000	160.692214 
512.000000	158.092814 
512.500000	155.445838 
513.000000	152.752365 
513.500000	149.986465 
514.000000	147.128810 
514.500000	144.295277 
515.000000	141.565529 
515.500000	138.935504 
516.000000	136.347009 
516.500000	133.788942 
517.000000	131.150443 
517.500000	128.434711 
518.000000	125.683085 
518.500000	122.968092 
519.000000	120.241217 
519.500000	117.592900 
520.000000	114.983366 
520.500000	112.411810 
521.000000	109.836811 
521.500000	107.309129 
522.000000	104.751093 
522.500000	102.241520 
523.000000	99.783404  
523.500000	97.419333  
524.000000	95.126135  
524.500000	92.902298  
525.000000	90.657324  
525.500000	88.409860  
526.000000	86.153952  
526.500000	83.956899  
527.000000	81.792739  
527.500000	79.691959  
528.000000	77.642754  
528.500000	75.635348  
529.000000	73.644150  
529.500000	71.700815  
530.000000	69.768451  
530.500000	67.864688  
531.000000	66.027832  
531.500000	64.244560  
532.000000	62.523419  
532.500000	60.892008  
533.000000	59.329354  
533.500000	57.804762  
534.000000	56.324292  
534.500000	54.853442  
535.000000	53.397595  
535.500000	51.942627  
536.000000	50.521152  
536.500000	49.159693  
537.000000	47.876947  
537.500000	46.658489  
538.000000	45.490016  
538.500000	44.344117  
539.000000	43.214919  
539.500000	42.126793  
540.000000	41.084746  
540.500000	40.083340  
541.000000	39.122111  
541.500000	38.188428  
542.000000	37.276287  
542.500000	36.367276  
543.000000	35.471729  
543.500000	34.576955  
544.000000	33.695651  
544.500000	32.843034  
545.000000	32.046132  
545.500000	31.280574  
546.000000	30.568338  
546.500000	29.880659  
547.000000	29.211295  
547.500000	28.547566  
548.000000	27.916001  
548.500000	27.297237  
549.000000	26.702874  
549.500000	26.130707  
550.000000	25.583213  
550.500000	25.037132  
551.000000	24.493765  
551.500000	23.943874  
552.000000	23.391617  
552.500000	22.844757  
553.000000	22.327744  
553.500000	21.841885  
554.000000	21.371750  
554.500000	20.919351  
555.000000	20.482369  
555.500000	20.042078  
556.000000	19.603304  
556.500000	19.177099  
557.000000	18.753161  
557.500000	18.346046  
558.000000	17.969933  
558.500000	17.610648  
559.000000	17.256633  
559.500000	16.902905  
560.000000	16.539896  
560.500000	16.169843  
561.000000	15.806582  
561.500000	15.458782  
562.000000	15.130122  
562.500000	14.824569  
563.000000	14.531566  
563.500000	14.241665  
564.000000	13.946828  
564.500000	13.650658  
565.000000	13.343987  
565.500000	13.043853  
566.000000	12.757845  
566.500000	12.492218  
567.000000	12.236472  
567.500000	11.989856  
568.000000	11.734990  
568.500000	11.485375  
569.000000	11.237860  
569.500000	11.009656  
570.000000	10.789142  
570.500000	10.573610  
571.000000	10.356476  
571.500000	10.148786  
572.000000	9.939838   
572.500000	9.743016   
573.000000	9.553361   
573.500000	9.352154   
574.000000	9.137797   
574.500000	8.923224   
575.000000	8.716263   
575.500000	8.526642   
576.000000	8.361854   
576.500000	8.205426   
577.000000	8.052086   
577.500000	7.898788   
578.000000	7.743132   
578.500000	7.580762   
579.000000	7.421888   
579.500000	7.259096   
580.000000	7.098465   
580.500000	6.939266   
581.000000	6.783322   
581.500000	6.635407   
582.000000	6.494418   
582.500000	6.357767   
583.000000	6.235560   
583.500000	6.118334   
584.000000	6.001036   
584.500000	5.890945   
585.000000	5.785729   
585.500000	5.679182   
586.000000	5.582529   
586.500000	5.485490   
587.000000	5.384186   
587.500000	5.285104   
588.000000	5.191835   
588.500000	5.098926   
589.000000	5.013249   
589.500000	4.931317   
590.000000	4.851464   
590.500000	4.767831   
591.000000	4.683712   
591.500000	4.599400   
592.000000	4.516930   
592.500000	4.438769   
593.000000	4.372493   
593.500000	4.310001   
594.000000	4.246774   
594.500000	4.179721   
595.000000	4.107320   
595.500000	4.027928   
596.000000	3.958810   
596.500000	3.895804   

