PE FL                   SPECTRUM    ASCII       PEDS        1.60        
  -1
DLDAE2~1.TXT
18/03/08
15:42:16.00
18/03/08
15:42:16.00


596.500000
1









LS55
350.00
11.00
2.90
SCAN
1
20
100
100
0
60
0
1
0
1
7
ON
600 350 
1 0 0
#HDR
-1
-1
#GR
NM

0.00002384185791015625
0.0
400.000000
0.500000
394
8
629.116262
5.595707
#DATA
400.000000	69.621999  
400.500000	75.765172  
401.000000	81.969248  
401.500000	88.300344  
402.000000	94.779481  
402.500000	101.416086 
403.000000	108.286256 
403.500000	115.321736 
404.000000	122.552172 
404.500000	129.993584 
405.000000	137.570005 
405.500000	145.252073 
406.000000	153.073266 
406.500000	160.942237 
407.000000	168.829048 
407.500000	176.748132 
408.000000	184.550036 
408.500000	192.242156 
409.000000	199.883350 
409.500000	207.546549 
410.000000	215.350276 
410.500000	223.495966 
411.000000	232.008704 
411.500000	240.993398 
412.000000	250.398930 
412.500000	260.136104 
413.000000	270.152895 
413.500000	280.386782 
414.000000	290.688898 
414.500000	301.047115 
415.000000	311.513794 
415.500000	321.981633 
416.000000	332.497073 
416.500000	343.013111 
417.000000	353.424659 
417.500000	363.738209 
418.000000	374.080037 
418.500000	384.413451 
419.000000	394.957828 
419.500000	405.740206 
420.000000	416.699701 
420.500000	427.670516 
421.000000	438.670101 
421.500000	449.450464 
422.000000	460.034732 
422.500000	470.293179 
423.000000	480.173906 
423.500000	489.573994 
424.000000	498.557842 
424.500000	507.065641 
425.000000	515.088104 
425.500000	522.501525 
426.000000	529.375965 
426.500000	535.799655 
427.000000	541.901870 
427.500000	547.875128 
428.000000	553.870228 
428.500000	560.009210 
429.000000	566.274518 
429.500000	572.679510 
430.000000	579.081468 
430.500000	585.179813 
431.000000	590.621970 
431.500000	595.304297 
432.000000	599.123297 
432.500000	602.253959 
433.000000	605.106619 
433.500000	608.071921 
434.000000	611.221938 
434.500000	614.558052 
435.000000	617.815967 
435.500000	620.660228 
436.000000	622.801496 
436.500000	624.326601 
437.000000	625.441513 
437.500000	626.335857 
438.000000	627.088118 
438.500000	627.825705 
439.000000	628.370359 
439.500000	628.773319 
440.000000	629.040320 
440.500000	629.116262 
441.000000	628.911972 
441.500000	628.443941 
442.000000	627.620206 
442.500000	626.488034 
443.000000	625.083057 
443.500000	623.448622 
444.000000	621.577729 
444.500000	619.500125 
445.000000	617.226898 
445.500000	614.785811 
446.000000	612.180744 
446.500000	609.479998 
447.000000	606.772669 
447.500000	604.016868 
448.000000	601.331380 
448.500000	598.636888 
449.000000	595.996065 
449.500000	593.454525 
450.000000	590.886411 
450.500000	588.065898 
451.000000	584.864426 
451.500000	581.050969 
452.000000	576.783306 
452.500000	572.280910 
453.000000	567.785393 
453.500000	563.325172 
454.000000	558.919924 
454.500000	554.379301 
455.000000	549.751839 
455.500000	545.052401 
456.000000	540.373601 
456.500000	535.678820 
457.000000	530.995847 
457.500000	526.421373 
458.000000	522.024718 
458.500000	517.685483 
459.000000	513.473496 
459.500000	509.261078 
460.000000	504.987418 
460.500000	500.700534 
461.000000	496.482238 
461.500000	492.370290 
462.000000	488.464543 
462.500000	484.618797 
463.000000	480.915223 
463.500000	477.274444 
464.000000	473.713521 
464.500000	470.229357 
465.000000	466.906008 
465.500000	463.616005 
466.000000	460.513177 
466.500000	457.524471 
467.000000	454.635186 
467.500000	451.850811 
468.000000	449.266377 
468.500000	446.815955 
469.000000	444.475969 
469.500000	442.210333 
470.000000	439.903916 
470.500000	437.542323 
471.000000	435.138379 
471.500000	432.753401 
472.000000	430.394082 
472.500000	428.168962 
473.000000	425.982757 
473.500000	423.877488 
474.000000	421.793672 
474.500000	419.721058 
475.000000	417.638736 
475.500000	415.603415 
476.000000	413.477708 
476.500000	411.335463 
477.000000	409.148767 
477.500000	406.935991 
478.000000	404.742474 
478.500000	402.536099 
479.000000	400.260274 
479.500000	397.978192 
480.000000	395.657963 
480.500000	393.343757 
481.000000	391.107983 
481.500000	388.877743 
482.000000	386.591343 
482.500000	384.271145 
483.000000	381.858680 
483.500000	379.359253 
484.000000	376.855813 
484.500000	374.405947 
485.000000	372.021765 
485.500000	369.799896 
486.000000	367.707158 
486.500000	365.705907 
487.000000	363.628527 
487.500000	361.442338 
488.000000	359.038235 
488.500000	356.479760 
489.000000	353.839926 
489.500000	351.216969 
490.000000	348.524620 
490.500000	345.820594 
491.000000	343.056470 
491.500000	340.268857 
492.000000	337.473050 
492.500000	334.767412 
493.000000	332.107783 
493.500000	329.512147 
494.000000	326.929917 
494.500000	324.365105 
495.000000	321.808737 
495.500000	319.255695 
496.000000	316.634899 
496.500000	313.895845 
497.000000	311.086368 
497.500000	308.204329 
498.000000	305.261767 
498.500000	302.351396 
499.000000	299.487205 
499.500000	296.594377 
500.000000	293.787649 
500.500000	291.040011 
501.000000	288.361210 
501.500000	285.819055 
502.000000	283.400366 
502.500000	280.897969 
503.000000	278.364859 
503.500000	275.769806 
504.000000	273.070912 
504.500000	270.235168 
505.000000	267.372942 
505.500000	264.406411 
506.000000	261.462415 
506.500000	258.609082 
507.000000	255.919538 
507.500000	253.310875 
508.000000	250.807631 
508.500000	248.260071 
509.000000	245.628633 
509.500000	242.918099 
510.000000	240.172110 
510.500000	237.318458 
511.000000	234.431380 
511.500000	231.502497 
512.000000	228.572080 
512.500000	225.597087 
513.000000	222.587034 
513.500000	219.443712 
514.000000	216.210476 
514.500000	212.896121 
515.000000	209.609926 
515.500000	206.282492 
516.000000	202.971375 
516.500000	199.669245 
517.000000	196.390541 
517.500000	193.093609 
518.000000	189.877596 
518.500000	186.657262 
519.000000	183.348580 
519.500000	179.986559 
520.000000	176.558104 
520.500000	173.089485 
521.000000	169.646066 
521.500000	166.253331 
522.000000	162.814156 
522.500000	159.369825 
523.000000	155.888118 
523.500000	152.437432 
524.000000	149.038100 
524.500000	145.764470 
525.000000	142.565764 
525.500000	139.427203 
526.000000	136.235283 
526.500000	133.022589 
527.000000	129.754355 
527.500000	126.483241 
528.000000	123.240556 
528.500000	120.052785 
529.000000	116.915774 
529.500000	113.898202 
530.000000	110.982273 
530.500000	108.192866 
531.000000	105.547376 
531.500000	102.994482 
532.000000	100.471688 
532.500000	98.009343  
533.000000	95.558433  
533.500000	93.129722  
534.000000	90.763365  
534.500000	88.435497  
535.000000	86.147603  
535.500000	83.941384  
536.000000	81.811199  
536.500000	79.750377  
537.000000	77.773808  
537.500000	75.857521  
538.000000	73.985177  
538.500000	72.177269  
539.000000	70.439797  
539.500000	68.768588  
540.000000	67.157018  
540.500000	65.582333  
541.000000	64.048454  
541.500000	62.536375  
542.000000	61.074502  
542.500000	59.654046  
543.000000	58.273529  
543.500000	56.923582  
544.000000	55.628172  
544.500000	54.347629  
545.000000	53.076972  
545.500000	51.806592  
546.000000	50.554870  
546.500000	49.334744  
547.000000	48.204951  
547.500000	47.157873  
548.000000	46.190887  
548.500000	45.263119  
549.000000	44.339050  
549.500000	43.420189  
550.000000	42.494902  
550.500000	41.565270  
551.000000	40.627974  
551.500000	39.701962  
552.000000	38.777507  
552.500000	37.886863  
553.000000	37.034633  
553.500000	36.230249  
554.000000	35.457552  
554.500000	34.726287  
555.000000	34.023139  
555.500000	33.335931  
556.000000	32.654521  
556.500000	31.981089  
557.000000	31.299140  
557.500000	30.624617  
558.000000	29.986945  
558.500000	29.372072  
559.000000	28.771423  
559.500000	28.170952  
560.000000	27.552497  
560.500000	26.922796  
561.000000	26.323914  
561.500000	25.756186  
562.000000	25.237740  
562.500000	24.758658  
563.000000	24.270475  
563.500000	23.747246  
564.000000	23.215064  
564.500000	22.681087  
565.000000	22.168640  
565.500000	21.701022  
566.000000	21.263617  
566.500000	20.825716  
567.000000	20.393523  
567.500000	19.955154  
568.000000	19.500136  
568.500000	19.056429  
569.000000	18.633874  
569.500000	18.231489  
570.000000	17.850338  
570.500000	17.492422  
571.000000	17.136037  
571.500000	16.764207  
572.000000	16.379728  
572.500000	15.993566  
573.000000	15.619944  
573.500000	15.269139  
574.000000	14.938562  
574.500000	14.605578  
575.000000	14.267241  
575.500000	13.928960  
576.000000	13.604735  
576.500000	13.295370  
577.000000	13.003700  
577.500000	12.705422  
578.000000	12.410008  
578.500000	12.120702  
579.000000	11.847460  
579.500000	11.593951  
580.000000	11.362164  
580.500000	11.126055  
581.000000	10.881624  
581.500000	10.636781  
582.000000	10.382924  
582.500000	10.116119  
583.000000	9.844430   
583.500000	9.577297   
584.000000	9.328131   
584.500000	9.112608   
585.000000	8.928528   
585.500000	8.763178   
586.000000	8.594394   
586.500000	8.419059   
587.000000	8.247097   
587.500000	8.076782   
588.000000	7.908711   
588.500000	7.742281   
589.000000	7.570051   
589.500000	7.388069   
590.000000	7.217511   
590.500000	7.065754   
591.000000	6.928695   
591.500000	6.798033   
592.000000	6.674960   
592.500000	6.550263   
593.000000	6.419478   
593.500000	6.290076   
594.000000	6.159762   
594.500000	6.027375   
595.000000	5.903485   
595.500000	5.796171   
596.000000	5.693986   
596.500000	5.595707   

