PE FL                   SPECTRUM    ASCII       PEDS        1.60        
  -1
DLDA70~1.TXT
18/01/17
11:42:25.00
18/01/17
11:42:25.00


598.500000
1









LS55
350.00
3.00
2.50
SCAN
1
20
100
100
0
60
0
1
0
1
7
ON
600 350 
1 0 0
#HDR
-1
-1
#GR
NM

0.00002384185791015625
0.0
400.000000
0.500000
398
8
732.622000
5.856000
#DATA
400.000000	191.460000 
400.500000	203.520000 
401.000000	212.370000 
401.500000	219.472000 
402.000000	230.710000 
402.500000	240.394000 
403.000000	252.669000 
403.500000	263.946000 
404.000000	272.727000 
404.500000	283.232000 
405.000000	293.432000 
405.500000	305.082000 
406.000000	317.389000 
406.500000	326.118000 
407.000000	343.706000 
407.500000	353.277000 
408.000000	364.716000 
408.500000	377.884000 
409.000000	388.895000 
409.500000	398.643000 
410.000000	410.012000 
410.500000	422.445000 
411.000000	436.559000 
411.500000	449.308000 
412.000000	462.771000 
412.500000	471.954000 
413.000000	486.188000 
413.500000	499.895000 
414.000000	512.684000 
414.500000	526.493000 
415.000000	529.679999 
415.500000	546.901000 
416.000000	560.298000 
416.500000	573.205000 
417.000000	582.517000 
417.500000	587.874000 
418.000000	600.078000 
418.500000	609.022000 
419.000000	621.481000 
419.500000	631.375000 
420.000000	635.912000 
420.500000	645.651000 
421.000000	656.491000 
421.500000	660.347000 
422.000000	664.590000 
422.500000	677.721000 
423.000000	682.673000 
423.500000	687.804000 
424.000000	689.956000 
424.500000	693.122000 
425.000000	698.342000 
425.500000	703.224000 
426.000000	706.042000 
426.500000	710.646000 
427.000000	709.723000 
427.500000	717.385000 
428.000000	718.967000 
428.500000	722.542000 
429.000000	722.948000 
429.500000	724.175000 
430.000000	725.226000 
430.500000	731.316000 
431.000000	728.048000 
431.500000	724.211000 
432.000000	725.478000 
432.500000	732.622000 
433.000000	726.674000 
433.500000	729.958000 
434.000000	732.344000 
434.500000	730.527000 
435.000000	729.631999 
435.500000	725.717000 
436.000000	732.405999 
436.500000	732.346000 
437.000000	728.760000 
437.500000	725.603000 
438.000000	729.537000 
438.500000	724.026000 
439.000000	721.441000 
439.500000	723.482000 
440.000000	717.696000 
440.500000	714.336000 
441.000000	710.367000 
441.500000	711.940000 
442.000000	707.398000 
442.500000	701.491000 
443.000000	695.754000 
443.500000	692.934999 
444.000000	688.519000 
444.500000	685.740000 
445.000000	675.424000 
445.500000	670.072000 
446.000000	667.547000 
446.500000	662.701000 
447.000000	656.774000 
447.500000	650.005000 
448.000000	647.034000 
448.500000	635.237000 
449.000000	632.549000 
449.500000	626.462000 
450.000000	625.401000 
450.500000	621.297000 
451.000000	616.418000 
451.500000	606.998000 
452.000000	597.431000 
452.500000	592.978000 
453.000000	582.583999 
453.500000	577.965000 
454.000000	573.621000 
454.500000	564.772000 
455.000000	558.633000 
455.500000	554.270000 
456.000000	548.126000 
456.500000	545.619000 
457.000000	535.741000 
457.500000	530.189000 
458.000000	522.188000 
458.500000	516.142000 
459.000000	504.903000 
459.500000	504.082000 
460.000000	494.406000 
460.500000	487.349000 
461.000000	479.535000 
461.500000	477.754000 
462.000000	473.868000 
462.500000	464.802000 
463.000000	458.726000 
463.500000	453.682000 
464.000000	450.907000 
464.500000	442.345000 
465.000000	439.594000 
465.500000	434.374000 
466.000000	428.853000 
466.500000	423.254000 
467.000000	421.895000 
467.500000	415.958000 
468.000000	408.038000 
468.500000	402.387000 
469.000000	394.540000 
469.500000	388.819000 
470.000000	389.486000 
470.500000	384.950000 
471.000000	383.350000 
471.500000	375.082000 
472.000000	369.421000 
472.500000	364.512000 
473.000000	364.529000 
473.500000	360.196000 
474.000000	354.905000 
474.500000	352.240000 
475.000000	346.032000 
475.500000	341.764000 
476.000000	342.897000 
476.500000	337.541000 
477.000000	330.908000 
477.500000	327.657000 
478.000000	323.532000 
478.500000	322.215000 
479.000000	319.854000 
479.500000	313.750000 
480.000000	312.073000 
480.500000	310.724000 
481.000000	308.014000 
481.500000	304.447000 
482.000000	299.920000 
482.500000	295.532000 
483.000000	290.802000 
483.500000	287.703000 
484.000000	285.406000 
484.500000	282.371000 
485.000000	277.101000 
485.500000	277.888000 
486.000000	272.625000 
486.500000	269.421000 
487.000000	264.503000 
487.500000	266.223000 
488.000000	261.608000 
488.500000	257.893000 
489.000000	253.919000 
489.500000	255.660000 
490.000000	251.552000 
490.500000	249.650000 
491.000000	245.995000 
491.500000	241.982000 
492.000000	238.396000 
492.500000	234.524000 
493.000000	230.692000 
493.500000	229.180000 
494.000000	227.004000 
494.500000	223.267000 
495.000000	222.781000 
495.500000	221.608000 
496.000000	217.495000 
496.500000	214.502000 
497.000000	211.071000 
497.500000	207.642000 
498.000000	208.980000 
498.500000	204.375000 
499.000000	200.510000 
499.500000	201.886000 
500.000000	197.619000 
500.500000	195.994000 
501.000000	192.461000 
501.500000	191.576000 
502.000000	188.652000 
502.500000	187.647000 
503.000000	182.952000 
503.500000	178.272000 
504.000000	179.282000 
504.500000	176.961000 
505.000000	174.476000 
505.500000	173.195000 
506.000000	170.384000 
506.500000	168.916000 
507.000000	166.694000 
507.500000	165.862000 
508.000000	165.902000 
508.500000	159.949000 
509.000000	157.862000 
509.500000	155.773000 
510.000000	154.706000 
510.500000	150.875000 
511.000000	149.716000 
511.500000	147.420000 
512.000000	145.247000 
512.500000	143.551000 
513.000000	141.620000 
513.500000	138.426000 
514.000000	132.821000 
514.500000	131.279000 
515.000000	133.199000 
515.500000	129.787000 
516.000000	127.308000 
516.500000	123.405000 
517.000000	123.767000 
517.500000	119.420000 
518.000000	119.699000 
518.500000	116.632000 
519.000000	114.130000 
519.500000	112.323000 
520.000000	108.629000 
520.500000	107.898000 
521.000000	104.936000 
521.500000	103.873000 
522.000000	99.541000  
522.500000	97.031000  
523.000000	95.474999  
523.500000	92.852000  
524.000000	90.390000  
524.500000	88.519000  
525.000000	88.888000  
525.500000	85.316999  
526.000000	83.042000  
526.500000	83.977999  
527.000000	81.569000  
527.500000	76.903000  
528.000000	76.042000  
528.500000	73.159000  
529.000000	71.542000  
529.500000	70.979000  
530.000000	69.277000  
530.500000	67.168000  
531.000000	63.723000  
531.500000	63.376000  
532.000000	62.292000  
532.500000	60.645000  
533.000000	58.980000  
533.500000	57.115000  
534.000000	56.883000  
534.500000	54.643000  
535.000000	54.037000  
535.500000	51.585000  
536.000000	51.032000  
536.500000	48.503000  
537.000000	47.712000  
537.500000	47.929000  
538.000000	46.778000  
538.500000	44.641000  
539.000000	44.687000  
539.500000	42.888000  
540.000000	42.843000  
540.500000	41.523000  
541.000000	40.592000  
541.500000	39.863000  
542.000000	39.280000  
542.500000	38.194000  
543.000000	36.832000  
543.500000	36.465000  
544.000000	35.204000  
544.500000	34.351000  
545.000000	34.406000  
545.500000	33.935000  
546.000000	33.009000  
546.500000	32.489000  
547.000000	30.235000  
547.500000	29.488000  
548.000000	28.612000  
548.500000	29.026000  
549.000000	28.505000  
549.500000	28.415000  
550.000000	26.235000  
550.500000	26.692000  
551.000000	25.782000  
551.500000	26.091000  
552.000000	25.793000  
552.500000	24.621000  
553.000000	24.870000  
553.500000	24.005000  
554.000000	22.909000  
554.500000	23.546000  
555.000000	23.105000  
555.500000	21.859000  
556.000000	21.802000  
556.500000	20.919000  
557.000000	20.046000  
557.500000	20.547000  
558.000000	20.487000  
558.500000	20.670000  
559.000000	19.733000  
559.500000	18.654000  
560.000000	18.784000  
560.500000	18.681000  
561.000000	17.761000  
561.500000	17.563000  
562.000000	17.726000  
562.500000	16.840000  
563.000000	16.339000  
563.500000	16.178000  
564.000000	16.256000  
564.500000	16.125000  
565.000000	15.378000  
565.500000	15.526000  
566.000000	15.455000  
566.500000	15.585000  
567.000000	15.251000  
567.500000	14.236000  
568.000000	14.279000  
568.500000	13.229000  
569.000000	13.577000  
569.500000	13.902000  
570.000000	13.177000  
570.500000	12.568000  
571.000000	12.103000  
571.500000	12.225000  
572.000000	12.122000  
572.500000	12.053000  
573.000000	12.414000  
573.500000	11.961000  
574.000000	12.205000  
574.500000	10.981000  
575.000000	11.150000  
575.500000	10.713000  
576.000000	10.854000  
576.500000	10.683000  
577.000000	10.282000  
577.500000	10.084000  
578.000000	9.968999   
578.500000	9.675000   
579.000000	9.500999   
579.500000	8.808000   
580.000000	9.545000   
580.500000	9.093999   
581.000000	9.224000   
581.500000	9.250000   
582.000000	9.113000   
582.500000	8.935000   
583.000000	8.563000   
583.500000	8.382999   
584.000000	8.612000   
584.500000	8.544000   
585.000000	7.726000   
585.500000	7.965000   
586.000000	7.773000   
586.500000	7.455000   
587.000000	7.699000   
587.500000	7.133000   
588.000000	7.362000   
588.500000	7.143000   
589.000000	7.374000   
589.500000	7.611000   
590.000000	7.620000   
590.500000	7.281000   
591.000000	7.169000   
591.500000	7.151000   
592.000000	6.886000   
592.500000	6.849000   
593.000000	6.968000   
593.500000	6.761000   
594.000000	6.700000   
594.500000	6.395000   
595.000000	6.404000   
595.500000	6.316000   
596.000000	6.027000   
596.500000	6.137000   
597.000000	6.145000   
597.500000	6.008000   
598.000000	5.856000   
598.500000	6.308000   

