PE FL                   SPECTRUM    ASCII       PEDS        1.60        
  -1
DLABD4~1.TXT
18/01/19
10:09:53.00
18/01/19
10:09:53.00


598.500000
1









LS55
350.00
3.00
2.50
SCAN
1
20
100
100
0
60
0
1
0
1
7
ON
435 365 
1 0 0
#HDR
-1
-1
#GR
NM

0.00002384185791015625
0.0
400.000000
0.500000
398
8
912.756999
10.715000
#DATA
400.000000	94.874000  
400.500000	95.715000  
401.000000	101.310000 
401.500000	106.713000 
402.000000	114.456000 
402.500000	121.762000 
403.000000	129.644000 
403.500000	135.833000 
404.000000	144.815000 
404.500000	152.273000 
405.000000	163.632000 
405.500000	170.976000 
406.000000	182.517000 
406.500000	191.976000 
407.000000	204.215000 
407.500000	215.403000 
408.000000	229.245000 
408.500000	239.965000 
409.000000	253.046000 
409.500000	265.189000 
410.000000	279.487000 
410.500000	294.924000 
411.000000	308.578000 
411.500000	323.595000 
412.000000	336.543000 
412.500000	349.910000 
413.000000	367.326000 
413.500000	386.179000 
414.000000	401.783000 
414.500000	416.931000 
415.000000	434.198000 
415.500000	448.846000 
416.000000	461.926000 
416.500000	483.762000 
417.000000	507.520000 
417.500000	520.184000 
418.000000	533.830000 
418.500000	553.219000 
419.000000	570.258000 
419.500000	586.844000 
420.000000	603.099000 
420.500000	615.062000 
421.000000	634.318000 
421.500000	645.439000 
422.000000	664.211000 
422.500000	675.600000 
423.000000	693.613000 
423.500000	706.855000 
424.000000	711.077000 
424.500000	728.029000 
425.000000	740.232000 
425.500000	747.467000 
426.000000	762.873000 
426.500000	770.818000 
427.000000	782.606000 
427.500000	788.037000 
428.000000	799.628000 
428.500000	811.276000 
429.000000	819.553000 
429.500000	822.409000 
430.000000	832.473000 
430.500000	840.418000 
431.000000	850.825000 
431.500000	854.429999 
432.000000	857.553000 
432.500000	868.718000 
433.000000	875.409000 
433.500000	877.964000 
434.000000	885.316000 
434.500000	889.736000 
435.000000	891.594000 
435.500000	892.470000 
436.000000	895.142000 
436.500000	903.559999 
437.000000	899.259000 
437.500000	895.265000 
438.000000	907.212000 
438.500000	903.398000 
439.000000	909.530000 
439.500000	912.756999 
440.000000	910.755000 
440.500000	910.583000 
441.000000	907.645000 
441.500000	910.737000 
442.000000	911.232999 
442.500000	909.228000 
443.000000	904.655000 
443.500000	902.046000 
444.000000	894.056000 
444.500000	893.645000 
445.000000	887.967000 
445.500000	888.187000 
446.000000	887.307000 
446.500000	882.841000 
447.000000	872.872000 
447.500000	869.369000 
448.000000	866.403000 
448.500000	863.330000 
449.000000	863.913000 
449.500000	861.197000 
450.000000	857.037000 
450.500000	846.285999 
451.000000	840.760000 
451.500000	840.081000 
452.000000	829.501000 
452.500000	822.727000 
453.000000	817.260000 
453.500000	812.955000 
454.000000	804.771000 
454.500000	806.942000 
455.000000	792.498000 
455.500000	787.021000 
456.000000	782.076000 
456.500000	776.199000 
457.000000	773.795000 
457.500000	763.851000 
458.000000	756.107999 
458.500000	758.616000 
459.000000	751.345000 
459.500000	739.353000 
460.000000	738.642000 
460.500000	732.282000 
461.000000	721.846000 
461.500000	723.075000 
462.000000	710.756000 
462.500000	702.976000 
463.000000	697.090000 
463.500000	694.197000 
464.000000	687.551000 
464.500000	679.848000 
465.000000	675.916000 
465.500000	668.421000 
466.000000	666.264000 
466.500000	664.676000 
467.000000	658.285999 
467.500000	651.165000 
468.000000	646.681000 
468.500000	638.581000 
469.000000	632.124000 
469.500000	626.054000 
470.000000	623.532000 
470.500000	619.201000 
471.000000	615.199000 
471.500000	612.269000 
472.000000	604.071000 
472.500000	599.428000 
473.000000	596.551000 
473.500000	591.288000 
474.000000	587.497000 
474.500000	579.141000 
475.000000	580.167000 
475.500000	571.287000 
476.000000	566.651000 
476.500000	557.957000 
477.000000	558.707000 
477.500000	553.851000 
478.000000	551.288000 
478.500000	547.717000 
479.000000	543.028000 
479.500000	534.976000 
480.000000	533.949000 
480.500000	532.145000 
481.000000	525.894000 
481.500000	525.476000 
482.000000	515.711000 
482.500000	513.328000 
483.000000	508.687000 
483.500000	504.589000 
484.000000	503.784000 
484.500000	495.702000 
485.000000	491.754000 
485.500000	485.690000 
486.000000	483.460000 
486.500000	480.781000 
487.000000	477.484000 
487.500000	473.777000 
488.000000	472.195000 
488.500000	463.549000 
489.000000	460.150000 
489.500000	455.937000 
490.000000	451.444000 
490.500000	447.109000 
491.000000	444.006000 
491.500000	436.766000 
492.000000	440.160000 
492.500000	435.970000 
493.000000	428.735000 
493.500000	423.844000 
494.000000	416.775000 
494.500000	413.307000 
495.000000	409.700000 
495.500000	406.883000 
496.000000	401.689000 
496.500000	398.263000 
497.000000	392.597000 
497.500000	394.432000 
498.000000	390.139000 
498.500000	384.421000 
499.000000	381.303000 
499.500000	372.994000 
500.000000	372.421000 
500.500000	371.486000 
501.000000	362.980000 
501.500000	359.210000 
502.000000	357.601000 
502.500000	350.129000 
503.000000	349.417000 
503.500000	345.955000 
504.000000	335.959000 
504.500000	336.799000 
505.000000	334.284000 
505.500000	327.653000 
506.000000	325.306000 
506.500000	323.281000 
507.000000	317.771000 
507.500000	312.435000 
508.000000	310.952000 
508.500000	307.003000 
509.000000	304.017000 
509.500000	299.056000 
510.000000	294.728000 
510.500000	292.164000 
511.000000	286.528000 
511.500000	280.848000 
512.000000	278.327000 
512.500000	269.983000 
513.000000	268.263000 
513.500000	269.934000 
514.000000	261.078000 
514.500000	257.600000 
515.000000	253.078000 
515.500000	250.431000 
516.000000	245.036000 
516.500000	239.501000 
517.000000	233.961000 
517.500000	232.576000 
518.000000	226.853000 
518.500000	220.281000 
519.000000	218.176000 
519.500000	213.283000 
520.000000	209.423000 
520.500000	204.064000 
521.000000	202.572000 
521.500000	195.244000 
522.000000	189.783000 
522.500000	185.004000 
523.000000	181.110000 
523.500000	180.143000 
524.000000	175.977000 
524.500000	173.344000 
525.000000	171.721000 
525.500000	165.460000 
526.000000	160.074000 
526.500000	156.586000 
527.000000	151.871000 
527.500000	147.936000 
528.000000	144.381000 
528.500000	141.557000 
529.000000	139.137000 
529.500000	133.792000 
530.000000	131.097000 
530.500000	128.096000 
531.000000	125.800000 
531.500000	121.714000 
532.000000	118.213000 
532.500000	114.659000 
533.000000	113.098000 
533.500000	111.573000 
534.000000	106.345000 
534.500000	103.662000 
535.000000	102.140000 
535.500000	99.303000  
536.000000	97.411000  
536.500000	94.146000  
537.000000	93.197999  
537.500000	90.455000  
538.000000	88.208000  
538.500000	87.111999  
539.000000	83.795000  
539.500000	83.181000  
540.000000	81.174000  
540.500000	78.929000  
541.000000	78.156000  
541.500000	76.842000  
542.000000	74.020000  
542.500000	71.890000  
543.000000	73.083000  
543.500000	70.269000  
544.000000	66.558000  
544.500000	65.834999  
545.000000	65.200000  
545.500000	64.828000  
546.000000	61.797000  
546.500000	60.169000  
547.000000	58.457000  
547.500000	57.473000  
548.000000	55.688000  
548.500000	54.870000  
549.000000	53.692000  
549.500000	52.979000  
550.000000	52.094000  
550.500000	51.500000  
551.000000	49.576000  
551.500000	49.104000  
552.000000	47.985000  
552.500000	45.857000  
553.000000	45.775000  
553.500000	46.758000  
554.000000	43.707000  
554.500000	44.187000  
555.000000	43.115000  
555.500000	42.205000  
556.000000	40.235000  
556.500000	40.249000  
557.000000	39.662000  
557.500000	38.060000  
558.000000	36.952000  
558.500000	36.435000  
559.000000	36.854000  
559.500000	35.577000  
560.000000	35.561000  
560.500000	34.850000  
561.000000	33.968000  
561.500000	33.857000  
562.000000	32.198000  
562.500000	32.496000  
563.000000	31.107000  
563.500000	30.805000  
564.000000	31.280000  
564.500000	30.421000  
565.000000	29.462000  
565.500000	28.405000  
566.000000	27.458000  
566.500000	27.763000  
567.000000	27.819000  
567.500000	27.018000  
568.000000	25.737000  
568.500000	24.884000  
569.000000	24.469000  
569.500000	24.308000  
570.000000	23.802000  
570.500000	23.356000  
571.000000	23.507000  
571.500000	23.190000  
572.000000	22.124000  
572.500000	21.774000  
573.000000	21.753000  
573.500000	21.453000  
574.000000	20.992000  
574.500000	20.710000  
575.000000	20.367000  
575.500000	19.269000  
576.000000	19.488000  
576.500000	19.349000  
577.000000	18.931000  
577.500000	18.305000  
578.000000	18.144000  
578.500000	17.652000  
579.000000	17.611000  
579.500000	17.222000  
580.000000	16.104000  
580.500000	16.764000  
581.000000	16.636000  
581.500000	16.472000  
582.000000	15.394000  
582.500000	15.647000  
583.000000	15.391000  
583.500000	15.270000  
584.000000	15.209000  
584.500000	14.122000  
585.000000	15.057000  
585.500000	14.095000  
586.000000	14.138000  
586.500000	13.917000  
587.000000	14.034000  
587.500000	13.472000  
588.000000	13.218000  
588.500000	13.612000  
589.000000	13.794000  
589.500000	13.322000  
590.000000	13.040000  
590.500000	12.200000  
591.000000	12.575000  
591.500000	13.292000  
592.000000	12.514000  
592.500000	11.985000  
593.000000	11.472000  
593.500000	11.747000  
594.000000	12.156000  
594.500000	12.933000  
595.000000	11.825000  
595.500000	11.541000  
596.000000	11.063000  
596.500000	10.917000  
597.000000	11.015000  
597.500000	11.172000  
598.000000	11.151000  
598.500000	10.715000  

