PE FL                   SPECTRUM    ASCII       PEDS        1.60        
  -1
DLPC_L~2.TXT
18/01/17
11:04:36.00
18/01/17
11:04:36.00


598.500000
1









LS55
350.00
3.00
2.50
SCAN
1
20
100
100
0
60
0
1
0
1
7
ON
600 350 
1 0 0
#HDR
-1
-1
#GR
NM

0.00002384185791015625
0.0
400.000000
0.500000
398
8
787.341000
5.522000
#DATA
400.000000	209.019000 
400.500000	215.969000 
401.000000	224.655000 
401.500000	234.197000 
402.000000	245.759000 
402.500000	255.874000 
403.000000	267.859000 
403.500000	278.567000 
404.000000	287.946000 
404.500000	300.616000 
405.000000	313.625000 
405.500000	323.314000 
406.000000	340.682000 
406.500000	353.740000 
407.000000	363.243000 
407.500000	374.420000 
408.000000	386.213000 
408.500000	401.060000 
409.000000	412.285000 
409.500000	426.962000 
410.000000	442.570000 
410.500000	454.034000 
411.000000	469.666000 
411.500000	480.445000 
412.000000	494.286000 
412.500000	510.704000 
413.000000	525.428000 
413.500000	538.306000 
414.000000	549.047000 
414.500000	561.756000 
415.000000	576.061000 
415.500000	589.934999 
416.000000	601.763000 
416.500000	614.338000 
417.000000	630.636000 
417.500000	643.485000 
418.000000	651.109000 
418.500000	657.626000 
419.000000	669.655000 
419.500000	682.091000 
420.000000	688.984000 
420.500000	699.413000 
421.000000	704.910000 
421.500000	713.261000 
422.000000	718.776000 
422.500000	727.431000 
423.000000	734.117000 
423.500000	735.169000 
424.000000	741.164000 
424.500000	745.117000 
425.000000	751.642000 
425.500000	753.978000 
426.000000	756.666000 
426.500000	762.336000 
427.000000	766.490000 
427.500000	767.207000 
428.000000	772.267000 
428.500000	775.172000 
429.000000	772.343000 
429.500000	776.420000 
430.000000	778.482999 
430.500000	783.124000 
431.000000	781.829000 
431.500000	786.277000 
432.000000	787.341000 
432.500000	778.499000 
433.000000	786.614000 
433.500000	785.513000 
434.000000	786.225000 
434.500000	779.428000 
435.000000	776.502000 
435.500000	781.851000 
436.000000	776.622000 
436.500000	776.521000 
437.000000	774.871000 
437.500000	772.003000 
438.000000	769.304000 
438.500000	767.659000 
439.000000	769.158000 
439.500000	759.611000 
440.000000	755.295000 
440.500000	753.482999 
441.000000	743.300000 
441.500000	739.722000 
442.000000	740.614000 
442.500000	738.149000 
443.000000	731.350000 
443.500000	722.957000 
444.000000	719.015000 
444.500000	713.088000 
445.000000	711.427000 
445.500000	701.482999 
446.000000	693.295000 
446.500000	687.741000 
447.000000	680.024000 
447.500000	673.673000 
448.000000	667.453000 
448.500000	660.133000 
449.000000	651.777000 
449.500000	645.255000 
450.000000	638.538000 
450.500000	634.322000 
451.000000	630.309999 
451.500000	618.554999 
452.000000	612.541000 
452.500000	606.264000 
453.000000	596.550000 
453.500000	588.367000 
454.000000	580.300000 
454.500000	573.697000 
455.000000	563.945000 
455.500000	560.561000 
456.000000	550.793000 
456.500000	542.548000 
457.000000	537.825000 
457.500000	530.973000 
458.000000	523.807000 
458.500000	517.074000 
459.000000	507.893000 
459.500000	498.903000 
460.000000	494.540000 
460.500000	482.166000 
461.000000	474.515000 
461.500000	471.470000 
462.000000	464.805000 
462.500000	456.673000 
463.000000	447.956000 
463.500000	441.702000 
464.000000	437.582000 
464.500000	426.562000 
465.000000	425.010000 
465.500000	418.548000 
466.000000	415.292000 
466.500000	407.778000 
467.000000	399.794000 
467.500000	395.823000 
468.000000	390.080000 
468.500000	384.111000 
469.000000	378.883000 
469.500000	372.866000 
470.000000	367.575000 
470.500000	361.657000 
471.000000	357.400000 
471.500000	353.624000 
472.000000	349.737000 
472.500000	344.871000 
473.000000	342.037000 
473.500000	337.982000 
474.000000	332.319000 
474.500000	328.756000 
475.000000	325.625000 
475.500000	318.657000 
476.000000	315.322000 
476.500000	310.827000 
477.000000	305.268000 
477.500000	301.447000 
478.000000	298.412000 
478.500000	293.817000 
479.000000	291.029000 
479.500000	281.662000 
480.000000	284.020000 
480.500000	282.173000 
481.000000	277.326000 
481.500000	271.865000 
482.000000	267.948000 
482.500000	262.185000 
483.000000	263.072000 
483.500000	258.156000 
484.000000	255.267000 
484.500000	251.807000 
485.000000	246.766000 
485.500000	247.004000 
486.000000	240.952000 
486.500000	239.981000 
487.000000	236.645000 
487.500000	232.846000 
488.000000	227.584000 
488.500000	223.219000 
489.000000	223.648000 
489.500000	217.572000 
490.000000	214.464000 
490.500000	214.178000 
491.000000	211.764000 
491.500000	206.290000 
492.000000	205.123000 
492.500000	202.515000 
493.000000	200.008000 
493.500000	196.825000 
494.000000	194.533000 
494.500000	191.314000 
495.000000	190.359000 
495.500000	185.606000 
496.000000	183.862000 
496.500000	181.108000 
497.000000	179.504000 
497.500000	175.293000 
498.000000	171.002000 
498.500000	171.387000 
499.000000	168.292000 
499.500000	167.467000 
500.000000	162.976000 
500.500000	159.115000 
501.000000	160.674000 
501.500000	158.716000 
502.000000	155.287000 
502.500000	154.185000 
503.000000	152.914000 
503.500000	147.479000 
504.000000	144.905000 
504.500000	145.531000 
505.000000	141.601000 
505.500000	140.801000 
506.000000	139.736000 
506.500000	138.049000 
507.000000	134.329000 
507.500000	133.724000 
508.000000	130.331000 
508.500000	126.851000 
509.000000	124.788000 
509.500000	125.015000 
510.000000	125.479000 
510.500000	123.279000 
511.000000	120.436000 
511.500000	116.845000 
512.000000	115.879000 
512.500000	113.749000 
513.000000	112.450000 
513.500000	110.813000 
514.000000	107.263000 
514.500000	105.173000 
515.000000	104.321000 
515.500000	101.579000 
516.000000	98.170000  
516.500000	99.171000  
517.000000	97.802000  
517.500000	95.950999  
518.000000	92.519000  
518.500000	89.736999  
519.000000	88.961000  
519.500000	88.372000  
520.000000	85.566000  
520.500000	84.502000  
521.000000	82.650000  
521.500000	81.203999  
522.000000	79.121000  
522.500000	77.093999  
523.000000	73.680000  
523.500000	74.313999  
524.000000	71.417000  
524.500000	70.142000  
525.000000	68.406000  
525.500000	67.005000  
526.000000	65.363000  
526.500000	63.692000  
527.000000	62.482000  
527.500000	59.674000  
528.000000	58.393000  
528.500000	57.820000  
529.000000	55.837000  
529.500000	53.053000  
530.000000	51.576000  
530.500000	52.104000  
531.000000	50.710000  
531.500000	50.740000  
532.000000	48.327000  
532.500000	47.153000  
533.000000	45.090000  
533.500000	45.473000  
534.000000	43.716000  
534.500000	42.999000  
535.000000	42.328000  
535.500000	41.517000  
536.000000	39.182000  
536.500000	38.926000  
537.000000	38.389000  
537.500000	36.363000  
538.000000	35.288000  
538.500000	36.699000  
539.000000	35.741000  
539.500000	33.207000  
540.000000	32.971000  
540.500000	31.228000  
541.000000	30.741000  
541.500000	30.823000  
542.000000	29.916000  
542.500000	29.013000  
543.000000	27.597000  
543.500000	27.874000  
544.000000	27.773000  
544.500000	27.599000  
545.000000	25.910000  
545.500000	25.523000  
546.000000	25.036000  
546.500000	25.120000  
547.000000	24.139000  
547.500000	23.670000  
548.000000	23.399000  
548.500000	22.960000  
549.000000	22.098000  
549.500000	20.925000  
550.000000	20.754000  
550.500000	20.310000  
551.000000	21.332000  
551.500000	20.683000  
552.000000	19.497000  
552.500000	19.446000  
553.000000	18.353000  
553.500000	17.915000  
554.000000	17.886000  
554.500000	18.357000  
555.000000	18.190000  
555.500000	17.393000  
556.000000	16.417000  
556.500000	17.105000  
557.000000	17.379000  
557.500000	17.558000  
558.000000	16.175000  
558.500000	16.047000  
559.000000	14.971000  
559.500000	14.920000  
560.000000	14.644000  
560.500000	14.910000  
561.000000	14.392000  
561.500000	14.059000  
562.000000	13.720000  
562.500000	13.767000  
563.000000	13.794000  
563.500000	12.748000  
564.000000	12.747000  
564.500000	12.784000  
565.000000	12.901000  
565.500000	12.585000  
566.000000	12.601000  
566.500000	11.749000  
567.000000	12.181000  
567.500000	11.398000  
568.000000	11.039000  
568.500000	11.131000  
569.000000	11.055000  
569.500000	10.800000  
570.000000	11.016000  
570.500000	10.417000  
571.000000	10.941000  
571.500000	10.628000  
572.000000	10.379000  
572.500000	9.882999   
573.000000	9.989000   
573.500000	9.664999   
574.000000	9.656000   
574.500000	9.520000   
575.000000	9.611000   
575.500000	9.228999   
576.000000	9.000999   
576.500000	9.494000   
577.000000	8.930000   
577.500000	8.940000   
578.000000	8.352000   
578.500000	8.531000   
579.000000	8.353000   
579.500000	8.231999   
580.000000	8.042000   
580.500000	8.102000   
581.000000	7.977000   
581.500000	7.978000   
582.000000	7.571000   
582.500000	7.556000   
583.000000	7.161000   
583.500000	7.087000   
584.000000	7.034000   
584.500000	7.165000   
585.000000	6.954000   
585.500000	7.349000   
586.000000	7.504000   
586.500000	6.586000   
587.000000	6.723000   
587.500000	6.916000   
588.000000	7.330000   
588.500000	6.724000   
589.000000	6.445000   
589.500000	6.327000   
590.000000	6.292000   
590.500000	6.261000   
591.000000	6.749000   
591.500000	6.504000   
592.000000	6.590000   
592.500000	6.388000   
593.000000	6.235000   
593.500000	6.002000   
594.000000	5.806000   
594.500000	5.713000   
595.000000	5.945000   
595.500000	6.195000   
596.000000	6.083000   
596.500000	6.076000   
597.000000	6.072000   
597.500000	5.549000   
598.000000	6.019000   
598.500000	5.522000   

