PE FL                   SPECTRUM    ASCII       PEDS        1.60        
  -1
DLD2F4~1.TXT
18/03/08
15:00:53.00
18/03/08
15:00:53.00


596.500000
1









LS55
350.00
11.00
2.90
SCAN
1
20
100
100
0
60
0
1
0
1
7
ON
600 350 
1 0 0
#HDR
-1
-1
#GR
NM

0.00002384185791015625
0.0
400.000000
0.500000
394
8
799.697969
4.338867
#DATA
400.000000	71.733999  
400.500000	78.984464  
401.000000	86.040804  
401.500000	92.901287  
402.000000	99.680587  
402.500000	106.588652 
403.000000	113.865245 
403.500000	121.580637 
404.000000	129.644532 
404.500000	138.008652 
405.000000	146.581871 
405.500000	155.377938 
406.000000	164.337937 
406.500000	173.452188 
407.000000	182.699044 
407.500000	192.089948 
408.000000	201.497131 
408.500000	211.037864 
409.000000	220.740179 
409.500000	230.795196 
410.000000	241.295305 
410.500000	252.274354 
411.000000	263.576172 
411.500000	275.252047 
412.000000	287.233338 
412.500000	299.562850 
413.000000	312.345744 
413.500000	325.621111 
414.000000	339.165143 
414.500000	352.913319 
415.000000	366.851025 
415.500000	380.873850 
416.000000	395.095472 
416.500000	409.608555 
417.000000	424.267157 
417.500000	439.000210 
418.000000	453.990910 
418.500000	469.039302 
419.000000	484.193454 
419.500000	499.299507 
420.000000	514.284697 
420.500000	529.029258 
421.000000	543.776478 
421.500000	558.351379 
422.000000	572.813248 
422.500000	586.816114 
423.000000	600.197273 
423.500000	612.724596 
424.000000	624.710400 
424.500000	636.115668 
425.000000	647.223507 
425.500000	657.881425 
426.000000	668.098009 
426.500000	677.704645 
427.000000	686.858475 
427.500000	695.500697 
428.000000	703.837128 
428.500000	711.801083 
429.000000	719.464218 
429.500000	726.712832 
430.000000	733.713140 
430.500000	740.363598 
431.000000	746.777856 
431.500000	752.936882 
432.000000	758.858304 
432.500000	764.296221 
433.000000	769.352075 
433.500000	774.049078 
434.000000	778.274189 
434.500000	782.230331 
435.000000	786.011552 
435.500000	789.339955 
436.000000	792.162202 
436.500000	794.649486 
437.000000	796.544047 
437.500000	797.958023 
438.000000	798.987051 
438.500000	799.607846 
439.000000	799.697969 
439.500000	799.408559 
440.000000	798.681478 
440.500000	797.580200 
441.000000	796.081426 
441.500000	794.324613 
442.000000	792.229631 
442.500000	789.674793 
443.000000	786.722383 
443.500000	783.380193 
444.000000	779.587543 
444.500000	775.498382 
445.000000	771.278877 
445.500000	766.881407 
446.000000	762.352889 
446.500000	757.735068 
447.000000	752.987917 
447.500000	748.121227 
448.000000	743.127341 
448.500000	738.026799 
449.000000	732.812133 
449.500000	727.421741 
450.000000	721.859675 
450.500000	716.112292 
451.000000	710.040672 
451.500000	703.753207 
452.000000	697.359365 
452.500000	690.873020 
453.000000	684.466168 
453.500000	678.140923 
454.000000	671.651181 
454.500000	664.973071 
455.000000	658.237790 
455.500000	651.436576 
456.000000	644.832124 
456.500000	638.531584 
457.000000	632.343655 
457.500000	625.958711 
458.000000	619.335352 
458.500000	612.315082 
459.000000	604.990322 
459.500000	597.634545 
460.000000	590.452199 
460.500000	583.459870 
461.000000	576.805499 
461.500000	570.423754 
462.000000	564.238117 
462.500000	558.222921 
463.000000	552.456465 
463.500000	546.834271 
464.000000	541.380779 
464.500000	536.014507 
465.000000	530.619640 
465.500000	525.176297 
466.000000	519.836341 
466.500000	514.478463 
467.000000	509.157622 
467.500000	503.860741 
468.000000	498.571617 
468.500000	493.294005 
469.000000	488.284040 
469.500000	483.506914 
470.000000	478.864131 
470.500000	474.302986 
471.000000	469.767139 
471.500000	465.279160 
472.000000	460.884178 
472.500000	456.632976 
473.000000	452.535610 
473.500000	448.442117 
474.000000	444.147953 
474.500000	439.791345 
475.000000	435.388538 
475.500000	430.963071 
476.000000	426.691821 
476.500000	422.650239 
477.000000	418.586647 
477.500000	414.560747 
478.000000	410.538089 
478.500000	406.425941 
479.000000	402.302350 
479.500000	398.309629 
480.000000	394.349366 
480.500000	390.435034 
481.000000	386.518959 
481.500000	382.632695 
482.000000	378.772178 
482.500000	374.934486 
483.000000	371.040988 
483.500000	367.222372 
484.000000	363.333211 
484.500000	359.427161 
485.000000	355.532018 
485.500000	351.699264 
486.000000	347.874740 
486.500000	344.195365 
487.000000	340.559105 
487.500000	336.974442 
488.000000	333.340638 
488.500000	329.704711 
489.000000	326.030227 
489.500000	322.388172 
490.000000	318.733389 
490.500000	315.127425 
491.000000	311.424276 
491.500000	307.657856 
492.000000	303.933697 
492.500000	300.314768 
493.000000	296.776390 
493.500000	293.367329 
494.000000	289.975864 
494.500000	286.608019 
495.000000	283.308213 
495.500000	280.059909 
496.000000	276.870746 
496.500000	273.694079 
497.000000	270.420891 
497.500000	267.043447 
498.000000	263.607889 
498.500000	260.107285 
499.000000	256.725068 
499.500000	253.498016 
500.000000	250.428792 
500.500000	247.507396 
501.000000	244.702767 
501.500000	241.821355 
502.000000	238.900281 
502.500000	235.928976 
503.000000	232.985039 
503.500000	230.110783 
504.000000	227.315856 
504.500000	224.522368 
505.000000	221.726019 
505.500000	218.861347 
506.000000	215.981068 
506.500000	213.125668 
507.000000	210.296748 
507.500000	207.477991 
508.000000	204.698733 
508.500000	201.900198 
509.000000	199.175874 
509.500000	196.551835 
510.000000	193.950125 
510.500000	191.343520 
511.000000	188.740411 
511.500000	185.998117 
512.000000	183.187175 
512.500000	180.298864 
513.000000	177.311453 
513.500000	174.287004 
514.000000	171.324099 
514.500000	168.362913 
515.000000	165.475624 
515.500000	162.629200 
516.000000	159.740543 
516.500000	156.791913 
517.000000	153.818735 
517.500000	150.849489 
518.000000	147.954358 
518.500000	145.117059 
519.000000	142.280725 
519.500000	139.442576 
520.000000	136.574913 
520.500000	133.686965 
521.000000	130.777350 
521.500000	127.866509 
522.000000	124.894417 
522.500000	121.898008 
523.000000	118.934128 
523.500000	116.060951 
524.000000	113.289192 
524.500000	110.674450 
525.000000	108.111075 
525.500000	105.554209 
526.000000	103.001930 
526.500000	100.468493 
527.000000	97.968606  
527.500000	95.532069  
528.000000	93.103691  
528.500000	90.693760  
529.000000	88.303147  
529.500000	85.938456  
530.000000	83.638337  
530.500000	81.410987  
531.000000	79.247652  
531.500000	77.181112  
532.000000	75.199670  
532.500000	73.291603  
533.000000	71.459852  
533.500000	69.639292  
534.000000	67.823209  
534.500000	66.031156  
535.000000	64.260046  
535.500000	62.555931  
536.000000	60.958470  
536.500000	59.414075  
537.000000	57.930016  
537.500000	56.483845  
538.000000	55.035210  
538.500000	53.602534  
539.000000	52.223722  
539.500000	50.887239  
540.000000	49.625154  
540.500000	48.425087  
541.000000	47.262835  
541.500000	46.134274  
542.000000	45.059670  
542.500000	44.010266  
543.000000	42.994235  
543.500000	41.983972  
544.000000	40.963905  
544.500000	39.927248  
545.000000	38.925263  
545.500000	37.975624  
546.000000	37.100309  
546.500000	36.292728  
547.000000	35.542184  
547.500000	34.797059  
548.000000	34.057617  
548.500000	33.321231  
549.000000	32.580559  
549.500000	31.853728  
550.000000	31.165241  
550.500000	30.486338  
551.000000	29.821419  
551.500000	29.168467  
552.000000	28.515944  
552.500000	27.878311  
553.000000	27.274305  
553.500000	26.682758  
554.000000	26.111555  
554.500000	25.550690  
555.000000	24.998357  
555.500000	24.467391  
556.000000	23.969880  
556.500000	23.478857  
557.000000	22.988315  
557.500000	22.483755  
558.000000	21.970066  
558.500000	21.470464  
559.000000	21.002622  
559.500000	20.560179  
560.000000	20.133566  
560.500000	19.704372  
561.000000	19.273419  
561.500000	18.851503  
562.000000	18.453889  
562.500000	18.090460  
563.000000	17.753722  
563.500000	17.404033  
564.000000	17.033033  
564.500000	16.646666  
565.000000	16.251662  
565.500000	15.876237  
566.000000	15.539193  
566.500000	15.218093  
567.000000	14.902139  
567.500000	14.578454  
568.000000	14.241260  
568.500000	13.914801  
569.000000	13.614458  
569.500000	13.333037  
570.000000	13.064615  
570.500000	12.800200  
571.000000	12.532309  
571.500000	12.262847  
572.000000	11.996743  
572.500000	11.731223  
573.000000	11.467447  
573.500000	11.205867  
574.000000	10.950107  
574.500000	10.692463  
575.000000	10.444182  
575.500000	10.202811  
576.000000	9.962292   
576.500000	9.733129   
577.000000	9.522662   
577.500000	9.324301   
578.000000	9.142818   
578.500000	8.969330   
579.000000	8.786591   
579.500000	8.594490   
580.000000	8.399089   
580.500000	8.196839   
581.000000	8.000615   
581.500000	7.823673   
582.000000	7.654315   
582.500000	7.485103   
583.000000	7.324741   
583.500000	7.163973   
584.000000	6.997481   
584.500000	6.840002   
585.000000	6.694232   
585.500000	6.552142   
586.000000	6.427839   
586.500000	6.313977   
587.000000	6.198461   
587.500000	6.081945   
588.000000	5.970104   
588.500000	5.853355   
589.000000	5.737463   
589.500000	5.623005   
590.000000	5.511775   
590.500000	5.397947   
591.000000	5.290767   
591.500000	5.185043   
592.000000	5.080785   
592.500000	4.979857   
593.000000	4.885662   
593.500000	4.797154   
594.000000	4.722355   
594.500000	4.654789   
595.000000	4.584974   
595.500000	4.511242   
596.000000	4.427545   
596.500000	4.338867   

