PE FL                   SPECTRUM    ASCII       PEDS        1.60        
  -1
DLF670~1.TXT
18/01/17
11:34:04.00
18/01/17
11:34:04.00


598.500000
1









LS55
350.00
3.00
2.50
SCAN
1
20
100
100
0
60
0
1
0
1
7
ON
600 350 
1 0 0
#HDR
-1
-1
#GR
NM

0.00002384185791015625
0.0
400.000000
0.500000
398
8
755.952000
5.982000
#DATA
400.000000	204.560000 
400.500000	208.312000 
401.000000	221.007000 
401.500000	226.860000 
402.000000	236.871000 
402.500000	247.970000 
403.000000	256.474000 
403.500000	266.132000 
404.000000	278.226000 
404.500000	290.996000 
405.000000	302.593000 
405.500000	315.908000 
406.000000	326.126000 
406.500000	337.329000 
407.000000	348.254000 
407.500000	360.991000 
408.000000	373.517000 
408.500000	383.124000 
409.000000	397.131000 
409.500000	408.638000 
410.000000	423.741000 
410.500000	436.072000 
411.000000	446.550000 
411.500000	460.799000 
412.000000	473.420000 
412.500000	486.065000 
413.000000	499.881000 
413.500000	515.482999 
414.000000	528.759000 
414.500000	540.924000 
415.000000	550.154000 
415.500000	563.304000 
416.000000	576.982000 
416.500000	585.634000 
417.000000	600.130000 
417.500000	610.783000 
418.000000	626.618000 
418.500000	631.153000 
419.000000	637.662000 
419.500000	649.691000 
420.000000	658.788000 
420.500000	662.260000 
421.000000	676.051000 
421.500000	679.006999 
422.000000	685.839000 
422.500000	699.480000 
423.000000	697.184999 
423.500000	700.138000 
424.000000	707.950000 
424.500000	711.899000 
425.000000	720.778000 
425.500000	719.803000 
426.000000	720.761000 
426.500000	730.350000 
427.000000	733.955000 
427.500000	733.552000 
428.000000	735.891000 
428.500000	737.484000 
429.000000	743.643000 
429.500000	744.670000 
430.000000	749.121000 
430.500000	751.455000 
431.000000	748.081000 
431.500000	746.503000 
432.000000	747.534000 
432.500000	745.348000 
433.000000	750.351000 
433.500000	752.345000 
434.000000	755.952000 
434.500000	753.019000 
435.000000	748.673000 
435.500000	749.861000 
436.000000	746.091000 
436.500000	748.395000 
437.000000	741.880000 
437.500000	743.078000 
438.000000	740.069000 
438.500000	738.833000 
439.000000	736.454000 
439.500000	733.439000 
440.000000	732.899000 
440.500000	735.873000 
441.000000	728.172000 
441.500000	727.929000 
442.000000	720.741000 
442.500000	714.083000 
443.000000	712.929999 
443.500000	706.067000 
444.000000	702.995000 
444.500000	699.607999 
445.000000	696.266000 
445.500000	688.838000 
446.000000	675.344000 
446.500000	677.972000 
447.000000	671.772000 
447.500000	664.025000 
448.000000	660.308000 
448.500000	650.376000 
449.000000	643.578000 
449.500000	641.969000 
450.000000	633.428000 
450.500000	627.294000 
451.000000	619.188000 
451.500000	612.283000 
452.000000	608.056000 
452.500000	597.466000 
453.000000	587.377000 
453.500000	587.594000 
454.000000	577.491000 
454.500000	575.868000 
455.000000	568.921000 
455.500000	561.928000 
456.000000	552.864000 
456.500000	548.722000 
457.000000	538.594000 
457.500000	534.106000 
458.000000	526.877000 
458.500000	519.309999 
459.000000	514.052000 
459.500000	510.843000 
460.000000	500.705000 
460.500000	492.495000 
461.000000	488.224000 
461.500000	480.249000 
462.000000	471.313000 
462.500000	468.337000 
463.000000	462.876000 
463.500000	452.099000 
464.000000	448.623000 
464.500000	445.229000 
465.000000	440.152000 
465.500000	432.284000 
466.000000	426.648000 
466.500000	420.589000 
467.000000	414.415000 
467.500000	410.556000 
468.000000	407.395000 
468.500000	403.255000 
469.000000	397.492000 
469.500000	390.567000 
470.000000	386.881000 
470.500000	383.089000 
471.000000	378.291000 
471.500000	372.479000 
472.000000	370.432000 
472.500000	369.261000 
473.000000	363.982000 
473.500000	359.421000 
474.000000	352.688000 
474.500000	348.890000 
475.000000	344.115000 
475.500000	344.329000 
476.000000	339.256000 
476.500000	333.671000 
477.000000	331.443000 
477.500000	325.570000 
478.000000	322.878000 
478.500000	319.100000 
479.000000	315.098000 
479.500000	314.787000 
480.000000	311.165000 
480.500000	305.252000 
481.000000	302.338000 
481.500000	297.675000 
482.000000	296.362000 
482.500000	293.746000 
483.000000	290.225000 
483.500000	284.293000 
484.000000	284.241000 
484.500000	278.635000 
485.000000	274.769000 
485.500000	274.402000 
486.000000	270.521000 
486.500000	265.812000 
487.000000	262.622000 
487.500000	259.703000 
488.000000	256.290000 
488.500000	253.053000 
489.000000	249.454000 
489.500000	249.628000 
490.000000	244.563000 
490.500000	239.338000 
491.000000	239.501000 
491.500000	235.994000 
492.000000	234.790000 
492.500000	228.731000 
493.000000	226.720000 
493.500000	225.861000 
494.000000	222.940000 
494.500000	218.116000 
495.000000	214.154000 
495.500000	213.863000 
496.000000	211.613000 
496.500000	210.316000 
497.000000	207.922000 
497.500000	203.658000 
498.000000	200.335000 
498.500000	198.479000 
499.000000	195.627000 
499.500000	192.906000 
500.000000	190.905000 
500.500000	187.315000 
501.000000	184.238000 
501.500000	184.202000 
502.000000	182.531000 
502.500000	179.883000 
503.000000	176.123000 
503.500000	176.504000 
504.000000	174.177000 
504.500000	171.143000 
505.000000	172.057000 
505.500000	168.602000 
506.000000	165.909000 
506.500000	162.080000 
507.000000	160.415000 
507.500000	159.488000 
508.000000	157.944000 
508.500000	154.287000 
509.000000	153.554000 
509.500000	151.171000 
510.000000	151.780000 
510.500000	149.667000 
511.000000	147.114000 
511.500000	141.228000 
512.000000	141.647000 
512.500000	137.045000 
513.000000	135.456000 
513.500000	133.087000 
514.000000	131.716000 
514.500000	130.006000 
515.000000	127.398000 
515.500000	122.540000 
516.000000	122.465000 
516.500000	118.846000 
517.000000	117.044000 
517.500000	116.559000 
518.000000	115.325000 
518.500000	112.993000 
519.000000	108.842000 
519.500000	107.558000 
520.000000	104.158000 
520.500000	102.777000 
521.000000	100.132000 
521.500000	97.580000  
522.000000	96.709999  
522.500000	95.319000  
523.000000	90.760000  
523.500000	90.542000  
524.000000	88.089000  
524.500000	83.830000  
525.000000	84.379000  
525.500000	81.941999  
526.000000	79.386000  
526.500000	77.560000  
527.000000	76.876000  
527.500000	74.236000  
528.000000	73.402000  
528.500000	71.099999  
529.000000	69.623000  
529.500000	67.513000  
530.000000	66.404000  
530.500000	64.536000  
531.000000	63.098000  
531.500000	60.793000  
532.000000	58.427000  
532.500000	57.558000  
533.000000	56.245000  
533.500000	54.914000  
534.000000	54.590000  
534.500000	53.170000  
535.000000	52.337000  
535.500000	50.398000  
536.000000	48.214000  
536.500000	48.422000  
537.000000	47.716000  
537.500000	45.446000  
538.000000	43.897000  
538.500000	42.196000  
539.000000	42.214000  
539.500000	41.546000  
540.000000	40.328000  
540.500000	39.544000  
541.000000	39.004000  
541.500000	37.791000  
542.000000	36.255000  
542.500000	34.686000  
543.000000	34.466000  
543.500000	34.993000  
544.000000	33.526000  
544.500000	32.746000  
545.000000	32.798000  
545.500000	31.336000  
546.000000	31.107000  
546.500000	30.382000  
547.000000	30.052000  
547.500000	28.764000  
548.000000	27.884000  
548.500000	28.059000  
549.000000	27.548000  
549.500000	27.369000  
550.000000	26.222000  
550.500000	25.488000  
551.000000	24.945000  
551.500000	24.544000  
552.000000	24.732000  
552.500000	23.721000  
553.000000	23.341000  
553.500000	22.673000  
554.000000	22.016000  
554.500000	21.654000  
555.000000	21.256000  
555.500000	22.240000  
556.000000	21.650000  
556.500000	20.951000  
557.000000	20.417000  
557.500000	19.534000  
558.000000	19.214000  
558.500000	18.522000  
559.000000	18.939000  
559.500000	18.930000  
560.000000	18.184000  
560.500000	17.900000  
561.000000	17.280000  
561.500000	16.916000  
562.000000	16.805000  
562.500000	16.591000  
563.000000	16.595000  
563.500000	16.274000  
564.000000	15.328000  
564.500000	15.820000  
565.000000	15.375000  
565.500000	14.942000  
566.000000	14.227000  
566.500000	13.698000  
567.000000	14.044000  
567.500000	14.183000  
568.000000	14.383000  
568.500000	13.853000  
569.000000	13.089000  
569.500000	13.137000  
570.000000	12.608000  
570.500000	12.669000  
571.000000	12.192000  
571.500000	12.573000  
572.000000	11.610000  
572.500000	11.526000  
573.000000	11.364000  
573.500000	11.258000  
574.000000	10.788000  
574.500000	11.200000  
575.000000	11.191000  
575.500000	10.937000  
576.000000	10.248000  
576.500000	10.268000  
577.000000	9.864000   
577.500000	10.191000  
578.000000	10.113000  
578.500000	9.362000   
579.000000	10.045000  
579.500000	9.381000   
580.000000	9.042999   
580.500000	9.064000   
581.000000	9.068000   
581.500000	8.835000   
582.000000	8.486000   
582.500000	7.804000   
583.000000	8.005000   
583.500000	8.161000   
584.000000	8.249000   
584.500000	8.581000   
585.000000	8.612000   
585.500000	8.194000   
586.000000	7.372000   
586.500000	7.972000   
587.000000	8.077999   
587.500000	7.281000   
588.000000	7.357000   
588.500000	7.119000   
589.000000	7.435000   
589.500000	7.354000   
590.000000	6.962000   
590.500000	6.841000   
591.000000	6.701000   
591.500000	6.594000   
592.000000	6.622000   
592.500000	6.858000   
593.000000	6.806000   
593.500000	7.188000   
594.000000	6.944000   
594.500000	6.895000   
595.000000	6.243000   
595.500000	5.982000   
596.000000	6.596000   
596.500000	6.600000   
597.000000	7.081000   
597.500000	6.044000   
598.000000	6.159000   
598.500000	6.153000   

