PE FL                   SPECTRUM    ASCII       PEDS        1.60        
  -1
DLD2F6~1.TXT
18/03/07
17:15:40.00
18/03/07
17:15:40.00


596.500000
1









LS55
350.00
11.00
2.90
SCAN
1
20
100
100
0
60
0
1
0
1
7
ON
600 350 
1 0 0
#HDR
-1
-1
#GR
NM

0.00002384185791015625
0.0
400.000000
0.500000
394
8
424.620511
4.279514
#DATA
400.000000	75.214000  
400.500000	80.692228  
401.000000	86.154880  
401.500000	91.645059  
402.000000	97.173793  
402.500000	102.822825 
403.000000	108.667009 
403.500000	114.729322 
404.000000	120.975389 
404.500000	127.409397 
405.000000	133.905373 
405.500000	140.475868 
406.000000	147.120276 
406.500000	153.890379 
407.000000	160.721933 
407.500000	167.616783 
408.000000	174.327821 
408.500000	180.780675 
409.000000	186.992810 
409.500000	193.212679 
410.000000	199.558369 
410.500000	206.217189 
411.000000	213.074220 
411.500000	220.020023 
412.000000	226.903817 
412.500000	233.897324 
413.000000	241.134623 
413.500000	248.750615 
414.000000	256.660386 
414.500000	264.675234 
415.000000	272.384721 
415.500000	279.585899 
416.000000	286.308581 
416.500000	292.664495 
417.000000	298.855688 
417.500000	305.120206 
418.000000	311.388439 
418.500000	317.538432 
419.000000	323.539211 
419.500000	329.343292 
420.000000	334.995320 
420.500000	340.756556 
421.000000	346.678779 
421.500000	352.644755 
422.000000	358.583259 
422.500000	364.319605 
423.000000	369.754072 
423.500000	375.043913 
424.000000	380.190790 
424.500000	385.135860 
425.000000	389.923549 
425.500000	394.477365 
426.000000	398.628383 
426.500000	402.392128 
427.000000	405.743047 
427.500000	408.622578 
428.000000	411.145164 
428.500000	413.412465 
429.000000	415.462167 
429.500000	417.417504 
430.000000	419.250377 
430.500000	420.816622 
431.000000	421.955944 
431.500000	422.657606 
432.000000	422.913534 
432.500000	422.867620 
433.000000	422.735688 
433.500000	422.732888 
434.000000	422.970278 
434.500000	423.460919 
435.000000	424.036341 
435.500000	424.479251 
436.000000	424.620511 
436.500000	424.388785 
437.000000	423.840277 
437.500000	423.075312 
438.000000	422.300129 
438.500000	421.635401 
439.000000	421.125641 
439.500000	420.680331 
440.000000	420.261578 
440.500000	419.765751 
441.000000	419.219271 
441.500000	418.532927 
442.000000	417.769564 
442.500000	416.845142 
443.000000	415.726471 
443.500000	414.320782 
444.000000	412.659334 
444.500000	410.695258 
445.000000	408.624754 
445.500000	406.497938 
446.000000	404.365916 
446.500000	402.243520 
447.000000	400.230175 
447.500000	398.183564 
448.000000	396.113679 
448.500000	393.986592 
449.000000	391.649569 
449.500000	389.071735 
450.000000	386.288364 
450.500000	383.260867 
451.000000	380.100523 
451.500000	376.988329 
452.000000	373.945571 
452.500000	371.028093 
453.000000	368.321603 
453.500000	365.728114 
454.000000	363.173016 
454.500000	360.666542 
455.000000	358.132013 
455.500000	355.541635 
456.000000	352.892458 
456.500000	350.166271 
457.000000	347.356721 
457.500000	344.444783 
458.000000	341.479351 
458.500000	338.490521 
459.000000	335.486377 
459.500000	332.507290 
460.000000	329.622362 
460.500000	326.873288 
461.000000	324.248601 
461.500000	321.718326 
462.000000	319.272856 
462.500000	316.893511 
463.000000	314.607225 
463.500000	312.500991 
464.000000	310.503887 
464.500000	308.451362 
465.000000	306.367942 
465.500000	304.269843 
466.000000	302.139456 
466.500000	300.079792 
467.000000	298.225799 
467.500000	296.520655 
468.000000	294.853748 
468.500000	293.258511 
469.000000	291.760958 
469.500000	290.300094 
470.000000	288.931471 
470.500000	287.671358 
471.000000	286.391980 
471.500000	285.059291 
472.000000	283.771866 
472.500000	282.479026 
473.000000	281.235613 
473.500000	280.048633 
474.000000	278.884931 
474.500000	277.614762 
475.000000	276.235355 
475.500000	274.796146 
476.000000	273.450895 
476.500000	272.138534 
477.000000	270.947559 
477.500000	269.768355 
478.000000	268.506705 
478.500000	267.094220 
479.000000	265.605460 
479.500000	263.965677 
480.000000	262.315433 
480.500000	260.763386 
481.000000	259.345509 
481.500000	258.031305 
482.000000	256.866825 
482.500000	255.721810 
483.000000	254.497165 
483.500000	253.217019 
484.000000	251.891549 
484.500000	250.494682 
485.000000	249.071771 
485.500000	247.650326 
486.000000	246.169880 
486.500000	244.728305 
487.000000	243.374633 
487.500000	242.068610 
488.000000	240.749797 
488.500000	239.400485 
489.000000	237.920404 
489.500000	236.345396 
490.000000	234.744086 
490.500000	233.175926 
491.000000	231.606952 
491.500000	230.073171 
492.000000	228.516670 
492.500000	226.973841 
493.000000	225.454016 
493.500000	223.961781 
494.000000	222.463092 
494.500000	220.967976 
495.000000	219.432963 
495.500000	217.911804 
496.000000	216.391870 
496.500000	214.833516 
497.000000	213.224516 
497.500000	211.589991 
498.000000	209.909622 
498.500000	208.214517 
499.000000	206.564801 
499.500000	204.927422 
500.000000	203.273482 
500.500000	201.599382 
501.000000	199.917153 
501.500000	198.218165 
502.000000	196.594020 
502.500000	195.045843 
503.000000	193.552743 
503.500000	192.029344 
504.000000	190.471895 
504.500000	188.801440 
505.000000	187.115776 
505.500000	185.461011 
506.000000	183.932417 
506.500000	182.428527 
507.000000	180.976859 
507.500000	179.465182 
508.000000	177.907114 
508.500000	176.267603 
509.000000	174.690557 
509.500000	173.063868 
510.000000	171.409121 
510.500000	169.694599 
511.000000	167.897970 
511.500000	165.929761 
512.000000	163.953139 
512.500000	161.934661 
513.000000	159.884287 
513.500000	157.794754 
514.000000	155.694271 
514.500000	153.448820 
515.000000	151.145619 
515.500000	148.828794 
516.000000	146.540351 
516.500000	144.246704 
517.000000	142.000104 
517.500000	139.732799 
518.000000	137.455834 
518.500000	135.132301 
519.000000	132.736142 
519.500000	130.198093 
520.000000	127.594557 
520.500000	124.947415 
521.000000	122.373451 
521.500000	119.918249 
522.000000	117.539499 
522.500000	115.190772 
523.000000	112.863414 
523.500000	110.478952 
524.000000	108.109708 
524.500000	105.830754 
525.000000	103.588673 
525.500000	101.375733 
526.000000	99.229806  
526.500000	97.089100  
527.000000	94.945177  
527.500000	92.823115  
528.000000	90.669276  
528.500000	88.495900  
529.000000	86.367821  
529.500000	84.280521  
530.000000	82.241398  
530.500000	80.292133  
531.000000	78.397199  
531.500000	76.540951  
532.000000	74.760732  
532.500000	73.017912  
533.000000	71.296315  
533.500000	69.602206  
534.000000	67.922203  
534.500000	66.221295  
535.000000	64.554050  
535.500000	62.902408  
536.000000	61.301850  
536.500000	59.779384  
537.000000	58.355167  
537.500000	56.997288  
538.000000	55.685774  
538.500000	54.369511  
539.000000	53.078248  
539.500000	51.808009  
540.000000	50.594880  
540.500000	49.435474  
541.000000	48.330988  
541.500000	47.246559  
542.000000	46.212503  
542.500000	45.195793  
543.000000	44.201513  
543.500000	43.208721  
544.000000	42.217025  
544.500000	41.211852  
545.000000	40.245574  
545.500000	39.308150  
546.000000	38.430963  
546.500000	37.600969  
547.000000	36.808216  
547.500000	36.027804  
548.000000	35.273605  
548.500000	34.521034  
549.000000	33.773041  
549.500000	33.067867  
550.000000	32.394510  
550.500000	31.746587  
551.000000	31.106560  
551.500000	30.467426  
552.000000	29.812748  
552.500000	29.173619  
553.000000	28.545981  
553.500000	27.948238  
554.000000	27.364051  
554.500000	26.797691  
555.000000	26.250052  
555.500000	25.714376  
556.000000	25.176425  
556.500000	24.658105  
557.000000	24.141730  
557.500000	23.624195  
558.000000	23.136214  
558.500000	22.668277  
559.000000	22.206181  
559.500000	21.761002  
560.000000	21.326142  
560.500000	20.887644  
561.000000	20.460103  
561.500000	20.035585  
562.000000	19.602064  
562.500000	19.176563  
563.000000	18.757287  
563.500000	18.340874  
564.000000	17.950048  
564.500000	17.590803  
565.000000	17.249767  
565.500000	16.916011  
566.000000	16.585274  
566.500000	16.239610  
567.000000	15.884684  
567.500000	15.537467  
568.000000	15.201382  
568.500000	14.881405  
569.000000	14.570073  
569.500000	14.257510  
570.000000	13.937316  
570.500000	13.619980  
571.000000	13.308104  
571.500000	13.023673  
572.000000	12.757107  
572.500000	12.501619  
573.000000	12.243873  
573.500000	11.976818  
574.000000	11.687555  
574.500000	11.410510  
575.000000	11.148108  
575.500000	10.904919  
576.000000	10.674206  
576.500000	10.455995  
577.000000	10.230735  
577.500000	9.998764   
578.000000	9.763443   
578.500000	9.528829   
579.000000	9.287476   
579.500000	9.059764   
580.000000	8.849230   
580.500000	8.646055   
581.000000	8.455386   
581.500000	8.275483   
582.000000	8.079368   
582.500000	7.874258   
583.000000	7.677688   
583.500000	7.483818   
584.000000	7.299764   
584.500000	7.133488   
585.000000	6.973677   
585.500000	6.811827   
586.000000	6.658944   
586.500000	6.515906   
587.000000	6.377284   
587.500000	6.250061   
588.000000	6.130449   
588.500000	6.007350   
589.000000	5.883873   
589.500000	5.763012   
590.000000	5.636679   
590.500000	5.510518   
591.000000	5.388847   
591.500000	5.267690   
592.000000	5.154002   
592.500000	5.051549   
593.000000	4.955050   
593.500000	4.861877   
594.000000	4.769135   
594.500000	4.670094   
595.000000	4.569765   
595.500000	4.472827   
596.000000	4.375401   
596.500000	4.279514   

