PE FL                   SPECTRUM    ASCII       PEDS        1.60        
  -1
DL78CC~1.TXT
18/01/19
14:08:01.00
18/01/19
14:08:01.00


598.500000
1









LS55
350.00
3.00
2.50
SCAN
1
20
100
100
0
60
0
1
0
1
7
ON
600 350 
1 0 0
#HDR
-1
-1
#GR
NM

0.00002384185791015625
0.0
400.000000
0.500000
398
8
686.016000
10.848000
#DATA
400.000000	68.886000  
400.500000	76.880000  
401.000000	81.233999  
401.500000	86.700000  
402.000000	90.915000  
402.500000	96.046000  
403.000000	100.681000 
403.500000	109.060000 
404.000000	115.974000 
404.500000	122.548000 
405.000000	126.525000 
405.500000	132.932000 
406.000000	140.404000 
406.500000	149.486000 
407.000000	155.778000 
407.500000	166.001000 
408.000000	172.458000 
408.500000	181.463000 
409.000000	189.355000 
409.500000	198.555000 
410.000000	208.590000 
410.500000	219.730000 
411.000000	229.560000 
411.500000	238.688000 
412.000000	248.228000 
412.500000	256.119000 
413.000000	270.735000 
413.500000	282.179000 
414.000000	296.075000 
414.500000	308.533000 
415.000000	316.048000 
415.500000	328.988000 
416.000000	340.601000 
416.500000	350.798000 
417.000000	363.876000 
417.500000	378.652000 
418.000000	385.152000 
418.500000	394.057000 
419.000000	406.958000 
419.500000	422.318000 
420.000000	431.876000 
420.500000	439.511000 
421.000000	453.669000 
421.500000	466.820000 
422.000000	473.576000 
422.500000	479.900000 
423.000000	494.068000 
423.500000	502.306000 
424.000000	506.686000 
424.500000	516.043000 
425.000000	525.695000 
425.500000	532.589000 
426.000000	541.285999 
426.500000	551.112000 
427.000000	557.898000 
427.500000	555.554000 
428.000000	560.857000 
428.500000	572.954000 
429.000000	581.864000 
429.500000	588.912000 
430.000000	596.273000 
430.500000	603.025000 
431.000000	605.927000 
431.500000	612.725000 
432.000000	617.188000 
432.500000	623.362000 
433.000000	623.365000 
433.500000	633.623000 
434.000000	635.886000 
434.500000	644.670000 
435.000000	649.987000 
435.500000	653.370000 
436.000000	653.682000 
436.500000	659.651000 
437.000000	661.515000 
437.500000	665.354000 
438.000000	670.550000 
438.500000	671.309999 
439.000000	669.092000 
439.500000	676.081000 
440.000000	673.806000 
440.500000	680.854000 
441.000000	678.537000 
441.500000	684.282000 
442.000000	686.016000 
442.500000	685.837000 
443.000000	684.678000 
443.500000	683.741000 
444.000000	684.738000 
444.500000	681.320000 
445.000000	681.040000 
445.500000	678.270000 
446.000000	678.640000 
446.500000	679.194000 
447.000000	680.148000 
447.500000	677.232000 
448.000000	674.332000 
448.500000	676.647000 
449.000000	666.145000 
449.500000	668.657000 
450.000000	674.943000 
450.500000	670.960000 
451.000000	664.600000 
451.500000	666.371000 
452.000000	664.932000 
452.500000	664.206000 
453.000000	666.089000 
453.500000	660.534000 
454.000000	651.785999 
454.500000	653.469000 
455.000000	655.447000 
455.500000	649.994000 
456.000000	647.434000 
456.500000	647.756999 
457.000000	643.737000 
457.500000	639.181000 
458.000000	635.721000 
458.500000	633.581000 
459.000000	629.052000 
459.500000	630.929000 
460.000000	628.193000 
460.500000	626.658000 
461.000000	624.484000 
461.500000	620.937000 
462.000000	615.114000 
462.500000	613.195000 
463.000000	617.575000 
463.500000	608.160000 
464.000000	610.971000 
464.500000	608.041000 
465.000000	601.577000 
465.500000	602.773000 
466.000000	598.932000 
466.500000	598.534000 
467.000000	600.035999 
467.500000	598.472000 
468.000000	593.417000 
468.500000	591.416000 
469.000000	589.523000 
469.500000	583.872000 
470.000000	583.609000 
470.500000	586.200000 
471.000000	582.977000 
471.500000	578.380000 
472.000000	576.725000 
472.500000	577.383000 
473.000000	576.395000 
473.500000	578.739000 
474.000000	576.326000 
474.500000	571.070000 
475.000000	567.131999 
475.500000	562.716000 
476.000000	563.448000 
476.500000	564.889000 
477.000000	559.664000 
477.500000	560.011999 
478.000000	557.261000 
478.500000	555.776000 
479.000000	554.792000 
479.500000	546.409000 
480.000000	544.039000 
480.500000	547.765000 
481.000000	549.251000 
481.500000	540.279000 
482.000000	541.153000 
482.500000	537.865000 
483.000000	537.416000 
483.500000	538.689000 
484.000000	530.236000 
484.500000	526.282000 
485.000000	524.966000 
485.500000	521.914000 
486.000000	523.585000 
486.500000	518.549000 
487.000000	516.471000 
487.500000	515.947000 
488.000000	510.100000 
488.500000	508.054000 
489.000000	505.121000 
489.500000	501.510000 
490.000000	499.955000 
490.500000	501.232000 
491.000000	500.046000 
491.500000	495.048000 
492.000000	490.053000 
492.500000	491.197000 
493.000000	487.338000 
493.500000	480.529000 
494.000000	480.315000 
494.500000	476.434000 
495.000000	470.257000 
495.500000	467.798000 
496.000000	468.977000 
496.500000	463.240000 
497.000000	460.379000 
497.500000	459.860000 
498.000000	456.072000 
498.500000	445.117000 
499.000000	443.054000 
499.500000	440.167000 
500.000000	437.354000 
500.500000	436.420000 
501.000000	435.978000 
501.500000	430.444000 
502.000000	424.309000 
502.500000	426.475000 
503.000000	419.048000 
503.500000	416.820000 
504.000000	414.958000 
504.500000	410.909000 
505.000000	404.253000 
505.500000	403.311000 
506.000000	400.256000 
506.500000	398.365000 
507.000000	391.957000 
507.500000	386.225000 
508.000000	381.724000 
508.500000	380.150000 
509.000000	377.870000 
509.500000	371.251000 
510.000000	367.068000 
510.500000	366.683000 
511.000000	358.444000 
511.500000	357.259000 
512.000000	352.157000 
512.500000	349.184000 
513.000000	341.111000 
513.500000	334.826000 
514.000000	331.286000 
514.500000	324.042000 
515.000000	322.030000 
515.500000	317.319000 
516.000000	314.307000 
516.500000	306.441000 
517.000000	300.215000 
517.500000	292.773000 
518.000000	292.279000 
518.500000	284.278000 
519.000000	278.186000 
519.500000	276.111000 
520.000000	272.975000 
520.500000	269.123000 
521.000000	261.711000 
521.500000	253.934000 
522.000000	250.498000 
522.500000	244.491000 
523.000000	240.453000 
523.500000	232.641000 
524.000000	229.910000 
524.500000	225.870000 
525.000000	221.945000 
525.500000	214.505000 
526.000000	208.662000 
526.500000	206.897000 
527.000000	200.863000 
527.500000	194.889000 
528.000000	193.654000 
528.500000	186.483000 
529.000000	182.057000 
529.500000	180.231000 
530.000000	175.357000 
530.500000	169.995000 
531.000000	164.869000 
531.500000	161.348000 
532.000000	157.313000 
532.500000	153.762000 
533.000000	150.249000 
533.500000	147.546000 
534.000000	142.564000 
534.500000	140.795000 
535.000000	137.805000 
535.500000	134.295000 
536.000000	128.735000 
536.500000	126.254000 
537.000000	123.927000 
537.500000	120.690000 
538.000000	116.391000 
538.500000	115.231000 
539.000000	111.551000 
539.500000	108.400000 
540.000000	106.427000 
540.500000	103.088000 
541.000000	101.052000 
541.500000	101.356000 
542.000000	98.800000  
542.500000	94.708000  
543.000000	92.860000  
543.500000	92.348000  
544.000000	88.124000  
544.500000	86.846000  
545.000000	84.279000  
545.500000	83.104000  
546.000000	81.977000  
546.500000	79.803000  
547.000000	76.501000  
547.500000	75.782000  
548.000000	73.441000  
548.500000	72.802000  
549.000000	73.621000  
549.500000	71.871000  
550.000000	68.349999  
550.500000	66.861999  
551.000000	65.274000  
551.500000	65.340000  
552.000000	63.229000  
552.500000	61.259000  
553.000000	61.124000  
553.500000	58.239000  
554.000000	58.980000  
554.500000	57.078000  
555.000000	56.934000  
555.500000	55.899000  
556.000000	54.334000  
556.500000	52.039000  
557.000000	51.289000  
557.500000	50.816000  
558.000000	49.659000  
558.500000	49.192000  
559.000000	47.416000  
559.500000	46.969000  
560.000000	45.249000  
560.500000	44.229000  
561.000000	42.886000  
561.500000	43.384000  
562.000000	41.904000  
562.500000	40.307000  
563.000000	40.222000  
563.500000	39.922000  
564.000000	38.688000  
564.500000	38.038000  
565.000000	37.438000  
565.500000	36.092000  
566.000000	35.983000  
566.500000	34.593000  
567.000000	34.699000  
567.500000	34.676000  
568.000000	33.730000  
568.500000	32.300000  
569.000000	30.974000  
569.500000	31.524000  
570.000000	30.829000  
570.500000	29.952000  
571.000000	30.031000  
571.500000	29.592000  
572.000000	28.636000  
572.500000	28.870000  
573.000000	26.404000  
573.500000	26.850000  
574.000000	26.798000  
574.500000	26.094000  
575.000000	26.020000  
575.500000	25.605000  
576.000000	24.751000  
576.500000	23.943000  
577.000000	24.124000  
577.500000	22.094000  
578.000000	21.974000  
578.500000	21.730000  
579.000000	21.875000  
579.500000	20.971000  
580.000000	21.565000  
580.500000	20.190000  
581.000000	19.972000  
581.500000	19.650000  
582.000000	18.896000  
582.500000	19.113000  
583.000000	17.824000  
583.500000	17.888000  
584.000000	18.125000  
584.500000	17.831000  
585.000000	17.128000  
585.500000	16.813000  
586.000000	16.952000  
586.500000	15.935000  
587.000000	16.354000  
587.500000	15.495000  
588.000000	15.336000  
588.500000	14.642000  
589.000000	14.883000  
589.500000	15.223000  
590.000000	14.884000  
590.500000	14.131000  
591.000000	13.742000  
591.500000	14.071000  
592.000000	13.691000  
592.500000	13.253000  
593.000000	13.065000  
593.500000	12.866000  
594.000000	12.529000  
594.500000	12.781000  
595.000000	12.921000  
595.500000	12.509000  
596.000000	13.258000  
596.500000	12.904000  
597.000000	12.927000  
597.500000	12.274000  
598.000000	10.848000  
598.500000	11.675000  

