PE FL                   SPECTRUM    ASCII       PEDS        1.60        
  -1
DLPC_L~1.TXT
18/01/17
10:57:16.00
18/01/17
10:57:16.00


598.500000
1









LS55
350.00
3.00
2.50
SCAN
1
20
100
100
0
60
0
1
0
1
7
ON
435 365 
1 0 0
#HDR
-1
-1
#GR
NM

0.00002384185791015625
0.0
400.000000
0.500000
398
8
784.419000
5.672000
#DATA
400.000000	196.286000 
400.500000	213.886000 
401.000000	220.454000 
401.500000	234.747000 
402.000000	244.353000 
402.500000	253.065000 
403.000000	265.786000 
403.500000	276.882000 
404.000000	289.190000 
404.500000	297.248000 
405.000000	311.762000 
405.500000	325.524000 
406.000000	337.907000 
406.500000	349.164000 
407.000000	361.280000 
407.500000	372.216000 
408.000000	389.804000 
408.500000	402.182000 
409.000000	411.898000 
409.500000	427.557000 
410.000000	438.705000 
410.500000	458.296000 
411.000000	473.396000 
411.500000	481.127000 
412.000000	492.508000 
412.500000	505.069000 
413.000000	521.035000 
413.500000	537.976000 
414.000000	550.961000 
414.500000	562.590000 
415.000000	576.203000 
415.500000	586.826000 
416.000000	600.635000 
416.500000	615.702000 
417.000000	626.997000 
417.500000	636.426000 
418.000000	650.714000 
418.500000	656.614000 
419.000000	663.126000 
419.500000	675.053000 
420.000000	691.377000 
420.500000	695.821000 
421.000000	708.581000 
421.500000	714.169000 
422.000000	717.452000 
422.500000	718.916000 
423.000000	726.482000 
423.500000	734.198000 
424.000000	737.867000 
424.500000	744.981000 
425.000000	750.708000 
425.500000	753.466000 
426.000000	758.004000 
426.500000	762.625000 
427.000000	762.913000 
427.500000	763.978000 
428.000000	768.576000 
428.500000	764.321000 
429.000000	770.974000 
429.500000	771.628000 
430.000000	773.769000 
430.500000	779.944000 
431.000000	784.419000 
431.500000	778.909000 
432.000000	778.874000 
432.500000	772.804000 
433.000000	776.816000 
433.500000	775.254000 
434.000000	774.684999 
434.500000	781.198000 
435.000000	777.853000 
435.500000	776.616000 
436.000000	777.454000 
436.500000	777.755000 
437.000000	776.416000 
437.500000	765.445000 
438.000000	769.861000 
438.500000	764.605000 
439.000000	758.158000 
439.500000	755.854000 
440.000000	755.089000 
440.500000	741.147000 
441.000000	742.272000 
441.500000	741.323000 
442.000000	734.775000 
442.500000	732.857000 
443.000000	727.855000 
443.500000	723.917000 
444.000000	712.591000 
444.500000	715.429000 
445.000000	705.900000 
445.500000	700.890000 
446.000000	691.357999 
446.500000	684.557000 
447.000000	681.756999 
447.500000	670.238000 
448.000000	658.926000 
448.500000	658.154000 
449.000000	649.851000 
449.500000	649.063000 
450.000000	637.008000 
450.500000	629.962000 
451.000000	622.300000 
451.500000	613.720000 
452.000000	606.695000 
452.500000	597.859000 
453.000000	593.147000 
453.500000	587.777000 
454.000000	580.208000 
454.500000	574.255000 
455.000000	565.770000 
455.500000	554.053000 
456.000000	549.849000 
456.500000	543.331000 
457.000000	534.910000 
457.500000	528.154000 
458.000000	521.651000 
458.500000	509.966000 
459.000000	503.492000 
459.500000	495.452000 
460.000000	484.492000 
460.500000	480.914000 
461.000000	473.777000 
461.500000	465.513000 
462.000000	461.515000 
462.500000	449.762000 
463.000000	446.528000 
463.500000	441.089000 
464.000000	434.244000 
464.500000	428.298000 
465.000000	423.006000 
465.500000	418.557000 
466.000000	415.080000 
466.500000	406.138000 
467.000000	403.253000 
467.500000	390.211000 
468.000000	385.301000 
468.500000	380.858000 
469.000000	374.646000 
469.500000	374.505000 
470.000000	368.611000 
470.500000	361.352000 
471.000000	355.710000 
471.500000	351.604000 
472.000000	349.662000 
472.500000	347.466000 
473.000000	336.262000 
473.500000	333.211000 
474.000000	327.605000 
474.500000	325.972000 
475.000000	319.765000 
475.500000	316.935000 
476.000000	312.376000 
476.500000	310.497000 
477.000000	303.800000 
477.500000	300.723000 
478.000000	297.334000 
478.500000	295.419000 
479.000000	290.711000 
479.500000	284.277000 
480.000000	279.243000 
480.500000	280.014000 
481.000000	270.520000 
481.500000	266.697000 
482.000000	264.015000 
482.500000	260.699000 
483.000000	259.536000 
483.500000	257.599000 
484.000000	255.170000 
484.500000	251.084000 
485.000000	246.513000 
485.500000	242.860000 
486.000000	238.029000 
486.500000	237.431000 
487.000000	233.273000 
487.500000	230.076000 
488.000000	227.189000 
488.500000	225.298000 
489.000000	224.592000 
489.500000	218.862000 
490.000000	212.466000 
490.500000	210.640000 
491.000000	207.861000 
491.500000	204.831000 
492.000000	201.374000 
492.500000	201.428000 
493.000000	198.520000 
493.500000	194.854000 
494.000000	189.876000 
494.500000	189.910000 
495.000000	184.586000 
495.500000	183.521000 
496.000000	181.542000 
496.500000	180.997000 
497.000000	176.269000 
497.500000	174.258000 
498.000000	173.914000 
498.500000	169.509000 
499.000000	168.804000 
499.500000	164.558000 
500.000000	161.894000 
500.500000	159.923000 
501.000000	158.641000 
501.500000	156.766000 
502.000000	153.913000 
502.500000	152.409000 
503.000000	152.092000 
503.500000	146.382000 
504.000000	145.624000 
504.500000	144.410000 
505.000000	142.326000 
505.500000	139.129000 
506.000000	138.042000 
506.500000	133.440000 
507.000000	132.085000 
507.500000	131.517000 
508.000000	130.031000 
508.500000	127.705000 
509.000000	125.651000 
509.500000	123.448000 
510.000000	121.086000 
510.500000	119.651000 
511.000000	117.537000 
511.500000	117.508000 
512.000000	115.158000 
512.500000	114.141000 
513.000000	111.048000 
513.500000	108.489000 
514.000000	108.643000 
514.500000	105.478000 
515.000000	103.356000 
515.500000	101.691000 
516.000000	99.366000  
516.500000	95.782000  
517.000000	96.114000  
517.500000	94.413000  
518.000000	91.705000  
518.500000	89.919000  
519.000000	87.930000  
519.500000	85.041000  
520.000000	84.566000  
520.500000	83.774000  
521.000000	82.321000  
521.500000	79.491000  
522.000000	77.709999  
522.500000	74.739999  
523.000000	74.084000  
523.500000	70.114999  
524.000000	71.265000  
524.500000	70.441000  
525.000000	67.017000  
525.500000	65.254000  
526.000000	63.974000  
526.500000	60.855000  
527.000000	59.405000  
527.500000	59.668000  
528.000000	58.463000  
528.500000	57.102000  
529.000000	55.939000  
529.500000	53.798000  
530.000000	51.266000  
530.500000	51.653000  
531.000000	51.533000  
531.500000	50.612000  
532.000000	47.633000  
532.500000	46.594000  
533.000000	45.092000  
533.500000	44.599000  
534.000000	42.768000  
534.500000	41.825000  
535.000000	40.280000  
535.500000	39.469000  
536.000000	39.003000  
536.500000	37.637000  
537.000000	36.578000  
537.500000	35.850000  
538.000000	35.736000  
538.500000	35.273000  
539.000000	34.101000  
539.500000	33.078000  
540.000000	31.675000  
540.500000	32.515000  
541.000000	31.352000  
541.500000	30.368000  
542.000000	29.308000  
542.500000	28.673000  
543.000000	28.779000  
543.500000	28.072000  
544.000000	26.786000  
544.500000	26.487000  
545.000000	25.730000  
545.500000	24.011000  
546.000000	24.338000  
546.500000	24.272000  
547.000000	24.246000  
547.500000	23.321000  
548.000000	22.239000  
548.500000	22.736000  
549.000000	22.162000  
549.500000	21.054000  
550.000000	20.392000  
550.500000	20.530000  
551.000000	20.605000  
551.500000	20.405000  
552.000000	19.603000  
552.500000	19.144000  
553.000000	18.655000  
553.500000	18.319000  
554.000000	18.524000  
554.500000	18.225000  
555.000000	16.715000  
555.500000	16.558000  
556.000000	17.287000  
556.500000	16.792000  
557.000000	16.766000  
557.500000	16.499000  
558.000000	15.809000  
558.500000	15.513000  
559.000000	14.501000  
559.500000	14.795000  
560.000000	14.908000  
560.500000	14.614000  
561.000000	14.510000  
561.500000	13.819000  
562.000000	13.717000  
562.500000	12.576000  
563.000000	13.413000  
563.500000	13.151000  
564.000000	13.508000  
564.500000	12.427000  
565.000000	12.660000  
565.500000	12.324000  
566.000000	12.205000  
566.500000	12.372000  
567.000000	11.927000  
567.500000	11.940000  
568.000000	11.365000  
568.500000	11.088000  
569.000000	10.970000  
569.500000	11.263000  
570.000000	10.706000  
570.500000	10.056000  
571.000000	10.274000  
571.500000	10.394000  
572.000000	10.238000  
572.500000	10.803000  
573.000000	9.720000   
573.500000	9.738000   
574.000000	9.349000   
574.500000	9.664000   
575.000000	9.311000   
575.500000	9.029999   
576.000000	9.005000   
576.500000	8.632999   
577.000000	8.929000   
577.500000	8.654000   
578.000000	8.542000   
578.500000	8.148000   
579.000000	7.997000   
579.500000	8.176000   
580.000000	8.004000   
580.500000	7.601000   
581.000000	8.074999   
581.500000	7.677000   
582.000000	7.757000   
582.500000	7.422000   
583.000000	7.367000   
583.500000	7.505000   
584.000000	6.971000   
584.500000	7.032000   
585.000000	7.145000   
585.500000	6.652000   
586.000000	6.665000   
586.500000	6.434000   
587.000000	6.728000   
587.500000	6.530000   
588.000000	6.379000   
588.500000	6.726000   
589.000000	6.421000   
589.500000	6.427000   
590.000000	6.555000   
590.500000	6.395000   
591.000000	6.298000   
591.500000	6.284000   
592.000000	5.910000   
592.500000	6.879000   
593.000000	6.177000   
593.500000	6.089000   
594.000000	6.273000   
594.500000	6.211000   
595.000000	5.672000   
595.500000	6.158000   
596.000000	5.905000   
596.500000	6.045000   
597.000000	5.851000   
597.500000	6.019000   
598.000000	5.792000   
598.500000	5.764000   

