PE FL                   SPECTRUM    ASCII       PEDS        1.60        
  -1
DLD6F2~1.TXT
18/03/08
15:57:46.00
18/03/08
15:57:46.00


596.500000
1









LS55
350.00
11.00
2.90
SCAN
1
20
100
100
0
60
0
1
0
1
7
ON
600 350 
1 0 0
#HDR
-1
-1
#GR
NM

0.00002384185791015625
0.0
400.000000
0.500000
394
8
559.840774
5.699160
#DATA
400.000000	65.485000  
400.500000	71.519009  
401.000000	77.441698  
401.500000	83.317336  
402.000000	89.157896  
402.500000	95.019754  
403.000000	101.053546 
403.500000	107.303345 
404.000000	113.775623 
404.500000	120.551110 
405.000000	127.583800 
405.500000	134.855566 
406.000000	142.313824 
406.500000	149.954426 
407.000000	157.699994 
407.500000	165.559368 
408.000000	173.461465 
408.500000	181.421873 
409.000000	189.380733 
409.500000	197.433453 
410.000000	205.602973 
410.500000	213.909701 
411.000000	222.246550 
411.500000	230.682092 
412.000000	239.221760 
412.500000	247.939221 
413.000000	256.824991 
413.500000	265.895771 
414.000000	274.979714 
414.500000	284.072482 
415.000000	293.225082 
415.500000	302.424580 
416.000000	311.635260 
416.500000	320.814302 
417.000000	329.765111 
417.500000	338.531172 
418.000000	347.228700 
418.500000	355.926984 
419.000000	364.746994 
419.500000	373.601470 
420.000000	382.399630 
420.500000	391.177531 
421.000000	400.027601 
421.500000	408.922937 
422.000000	417.951864 
422.500000	426.929171 
423.000000	435.711588 
423.500000	444.117864 
424.000000	452.114779 
424.500000	459.641532 
425.000000	466.738315 
425.500000	473.367451 
426.000000	479.668407 
426.500000	485.636343 
427.000000	491.368504 
427.500000	496.919145 
428.000000	502.239767 
428.500000	507.244288 
429.000000	511.935039 
429.500000	516.221928 
430.000000	520.083760 
430.500000	523.655584 
431.000000	527.034882 
431.500000	530.262649 
432.000000	533.452437 
432.500000	536.540841 
433.000000	539.350709 
433.500000	541.839672 
434.000000	544.030774 
434.500000	545.971373 
435.000000	547.829761 
435.500000	549.633584 
436.000000	551.405186 
436.500000	553.158589 
437.000000	554.852020 
437.500000	556.432191 
438.000000	557.847981 
438.500000	558.854772 
439.000000	559.496485 
439.500000	559.804790 
440.000000	559.840774 
440.500000	559.738417 
441.000000	559.672238 
441.500000	559.464191 
442.000000	559.168785 
442.500000	558.617114 
443.000000	557.842651 
443.500000	556.867620 
444.000000	555.746658 
444.500000	554.410919 
445.000000	552.927175 
445.500000	551.116888 
446.000000	549.057242 
446.500000	546.886747 
447.000000	544.677331 
447.500000	542.512716 
448.000000	540.479099 
448.500000	538.406306 
449.000000	536.134993 
449.500000	533.754461 
450.000000	531.216138 
450.500000	528.463867 
451.000000	525.461542 
451.500000	522.302022 
452.000000	518.907952 
452.500000	515.342059 
453.000000	511.795037 
453.500000	508.218655 
454.000000	504.593369 
454.500000	501.153751 
455.000000	497.893609 
455.500000	494.714478 
456.000000	491.740132 
456.500000	488.831783 
457.000000	485.809065 
457.500000	482.713326 
458.000000	479.605380 
458.500000	476.468648 
459.000000	473.397396 
459.500000	470.369523 
460.000000	467.349821 
460.500000	464.349368 
461.000000	461.485542 
461.500000	458.783783 
462.000000	456.278970 
462.500000	453.877781 
463.000000	451.554259 
463.500000	449.191665 
464.000000	446.812896 
464.500000	444.434057 
465.000000	442.134068 
465.500000	439.872894 
466.000000	437.663747 
466.500000	435.460315 
467.000000	433.308647 
467.500000	431.265888 
468.000000	429.433111 
468.500000	427.818768 
469.000000	426.334377 
469.500000	424.903829 
470.000000	423.363340 
470.500000	421.719576 
471.000000	419.968018 
471.500000	418.214019 
472.000000	416.557066 
472.500000	414.997894 
473.000000	413.455200 
473.500000	411.927997 
474.000000	410.285269 
474.500000	408.525700 
475.000000	406.729973 
475.500000	404.950852 
476.000000	403.201782 
476.500000	401.621884 
477.000000	400.057336 
477.500000	398.449433 
478.000000	396.836252 
478.500000	395.215331 
479.000000	393.579852 
479.500000	392.029135 
480.000000	390.398389 
480.500000	388.628697 
481.000000	386.772013 
481.500000	384.927117 
482.000000	383.165291 
482.500000	381.552401 
483.000000	380.027255 
483.500000	378.446443 
484.000000	376.773047 
484.500000	374.971729 
485.000000	373.209945 
485.500000	371.421158 
486.000000	369.679729 
486.500000	367.918352 
487.000000	366.083497 
487.500000	364.120835 
488.000000	362.142239 
488.500000	360.037700 
489.000000	357.854619 
489.500000	355.638047 
490.000000	353.373181 
490.500000	350.999963 
491.000000	348.591634 
491.500000	346.130941 
492.000000	343.596899 
492.500000	341.105094 
493.000000	338.725239 
493.500000	336.393075 
494.000000	334.005225 
494.500000	331.626140 
495.000000	329.089029 
495.500000	326.375246 
496.000000	323.666412 
496.500000	320.995887 
497.000000	318.305581 
497.500000	315.739299 
498.000000	313.204177 
498.500000	310.646046 
499.000000	308.079969 
499.500000	305.492914 
500.000000	302.865647 
500.500000	300.297894 
501.000000	297.746479 
501.500000	295.275709 
502.000000	292.936429 
502.500000	290.596931 
503.000000	288.226892 
503.500000	285.836520 
504.000000	283.346677 
504.500000	280.727100 
505.000000	278.096453 
505.500000	275.438410 
506.000000	272.741684 
506.500000	270.009595 
507.000000	267.315114 
507.500000	264.622397 
508.000000	261.935119 
508.500000	259.247351 
509.000000	256.559316 
509.500000	253.766993 
510.000000	250.904449 
510.500000	248.044312 
511.000000	245.171345 
511.500000	242.244170 
512.000000	239.321078 
512.500000	236.328046 
513.000000	233.204580 
513.500000	230.016311 
514.000000	226.782990 
514.500000	223.440292 
515.000000	220.063412 
515.500000	216.640025 
516.000000	213.159969 
516.500000	209.666340 
517.000000	206.221571 
517.500000	202.780025 
518.000000	199.410852 
518.500000	196.080499 
519.000000	192.680619 
519.500000	189.187264 
520.000000	185.562979 
520.500000	181.799238 
521.000000	178.017504 
521.500000	174.302549 
522.000000	170.653333 
522.500000	167.098089 
523.000000	163.581164 
523.500000	160.100596 
524.000000	156.671524 
524.500000	153.319412 
525.000000	149.969810 
525.500000	146.624287 
526.000000	143.298382 
526.500000	140.048428 
527.000000	136.878461 
527.500000	133.808665 
528.000000	130.743238 
528.500000	127.554525 
529.000000	124.305822 
529.500000	121.075905 
530.000000	117.936172 
530.500000	114.990046 
531.000000	112.206313 
531.500000	109.471884 
532.000000	106.825396 
532.500000	104.213076 
533.000000	101.644785 
533.500000	99.138709  
534.000000	96.663403  
534.500000	94.230436  
535.000000	91.896571  
535.500000	89.612892  
536.000000	87.390495  
536.500000	85.239205  
537.000000	83.110725  
537.500000	81.013043  
538.000000	79.017361  
538.500000	77.077295  
539.000000	75.207661  
539.500000	73.405019  
540.000000	71.671931  
540.500000	69.988675  
541.000000	68.396165  
541.500000	66.844320  
542.000000	65.307210  
542.500000	63.750319  
543.000000	62.227214  
543.500000	60.734970  
544.000000	59.320817  
544.500000	57.964373  
545.000000	56.670659  
545.500000	55.387299  
546.000000	54.120962  
546.500000	52.890009  
547.000000	51.704822  
547.500000	50.565591  
548.000000	49.481186  
548.500000	48.419451  
549.000000	47.346516  
549.500000	46.279983  
550.000000	45.222546  
550.500000	44.184729  
551.000000	43.215527  
551.500000	42.318446  
552.000000	41.462520  
552.500000	40.642928  
553.000000	39.820032  
553.500000	38.965880  
554.000000	38.112177  
554.500000	37.291765  
555.000000	36.501298  
555.500000	35.762450  
556.000000	35.044608  
556.500000	34.310884  
557.000000	33.560606  
557.500000	32.818171  
558.000000	32.079785  
558.500000	31.380198  
559.000000	30.719709  
559.500000	30.080613  
560.000000	29.450213  
560.500000	28.837066  
561.000000	28.230177  
561.500000	27.628248  
562.000000	27.026700  
562.500000	26.435730  
563.000000	25.857366  
563.500000	25.291163  
564.000000	24.754831  
564.500000	24.250410  
565.000000	23.756288  
565.500000	23.272401  
566.000000	22.799931  
566.500000	22.311860  
567.000000	21.826806  
567.500000	21.358677  
568.000000	20.890341  
568.500000	20.424559  
569.000000	19.970662  
569.500000	19.510744  
570.000000	19.052008  
570.500000	18.610140  
571.000000	18.181536  
571.500000	17.781705  
572.000000	17.407154  
572.500000	17.038878  
573.000000	16.675942  
573.500000	16.318695  
574.000000	15.942741  
574.500000	15.565578  
575.000000	15.204658  
575.500000	14.854073  
576.000000	14.511875  
576.500000	14.193071  
577.000000	13.870686  
577.500000	13.541281  
578.000000	13.219718  
578.500000	12.908659  
579.000000	12.611423  
579.500000	12.330762  
580.000000	12.054535  
580.500000	11.772206  
581.000000	11.482665  
581.500000	11.193285  
582.000000	10.912139  
582.500000	10.636052  
583.000000	10.365246  
583.500000	10.110889  
584.000000	9.864435   
584.500000	9.633432   
585.000000	9.419439   
585.500000	9.212807   
586.000000	9.005535   
586.500000	8.805225   
587.000000	8.604778   
587.500000	8.422502   
588.000000	8.248726   
588.500000	8.074811   
589.000000	7.900020   
589.500000	7.726866   
590.000000	7.547156   
590.500000	7.380658   
591.000000	7.223191   
591.500000	7.069654   
592.000000	6.921152   
592.500000	6.778199   
593.000000	6.636135   
593.500000	6.504192   
594.000000	6.380874   
594.500000	6.251358   
595.000000	6.117334   
595.500000	5.976027   
596.000000	5.833223   
596.500000	5.699160   

