PE FL                   SPECTRUM    ASCII       PEDS        1.60        
  -1
DLEEEC~1.TXT
18/03/07
18:03:06.00
18/03/07
18:03:06.00


596.500000
1









LS55
350.00
11.00
2.90
SCAN
1
20
100
100
0
60
0
1
0
1
7
ON
600 350 
1 0 0
#HDR
-1
-1
#GR
NM

0.00002384185791015625
0.0
400.000000
0.500000
394
8
317.036772
4.110496
#DATA
400.000000	64.246999  
400.500000	69.044794  
401.000000	73.757723  
401.500000	78.403092  
402.000000	83.035503  
402.500000	87.697877  
403.000000	92.513739  
403.500000	97.500534  
404.000000	102.628810 
404.500000	107.921030 
405.000000	113.367133 
405.500000	118.946202 
406.000000	124.578260 
406.500000	130.172543 
407.000000	135.651269 
407.500000	140.969429 
408.000000	146.087408 
408.500000	151.129437 
409.000000	156.069124 
409.500000	160.878157 
410.000000	165.526895 
410.500000	169.991850 
411.000000	174.194479 
411.500000	178.271474 
412.000000	182.326277 
412.500000	186.408587 
413.000000	190.577064 
413.500000	194.873347 
414.000000	199.285712 
414.500000	203.817239 
415.000000	208.483651 
415.500000	213.298774 
416.000000	218.167464 
416.500000	222.988150 
417.000000	227.776343 
417.500000	232.590979 
418.000000	237.584421 
418.500000	242.754769 
419.000000	248.094246 
419.500000	253.466633 
420.000000	258.712485 
420.500000	263.741718 
421.000000	268.560393 
421.500000	273.075917 
422.000000	277.275004 
422.500000	281.157502 
423.000000	284.654941 
423.500000	287.733444 
424.000000	290.478306 
424.500000	292.910467 
425.000000	295.037320 
425.500000	296.948892 
426.000000	298.662755 
426.500000	300.127800 
427.000000	301.282899 
427.500000	302.192545 
428.000000	302.908755 
428.500000	303.533097 
429.000000	304.239562 
429.500000	305.083118 
430.000000	306.112817 
430.500000	307.304370 
431.000000	308.635472 
431.500000	309.878983 
432.000000	310.818761 
432.500000	311.345581 
433.000000	311.472997 
433.500000	311.246200 
434.000000	311.019675 
434.500000	310.995351 
435.000000	311.160203 
435.500000	311.598668 
436.000000	312.362203 
436.500000	313.264683 
437.000000	314.321124 
437.500000	315.430401 
438.000000	316.279813 
438.500000	316.796375 
439.000000	317.036772 
439.500000	316.958952 
440.000000	316.660133 
440.500000	316.246143 
441.000000	315.738047 
441.500000	315.199043 
442.000000	314.684496 
442.500000	314.248256 
443.000000	313.771104 
443.500000	313.002211 
444.000000	311.789467 
444.500000	310.048686 
445.000000	307.813875 
445.500000	305.412158 
446.000000	303.113047 
446.500000	301.037629 
447.000000	299.308405 
447.500000	297.932444 
448.000000	296.739580 
448.500000	295.681114 
449.000000	294.679902 
449.500000	293.603096 
450.000000	292.421397 
450.500000	291.139683 
451.000000	289.761584 
451.500000	288.330266 
452.000000	286.927359 
452.500000	285.538258 
453.000000	284.114570 
453.500000	282.732669 
454.000000	281.467514 
454.500000	280.340952 
455.000000	279.406214 
455.500000	278.561716 
456.000000	277.601499 
456.500000	276.405849 
457.000000	274.955345 
457.500000	273.235390 
458.000000	271.293040 
458.500000	269.230382 
459.000000	267.094557 
459.500000	264.991347 
460.000000	263.033702 
460.500000	261.318884 
461.000000	259.856347 
461.500000	258.572283 
462.000000	257.356099 
462.500000	256.116776 
463.000000	254.846047 
463.500000	253.555207 
464.000000	252.346454 
464.500000	251.293304 
465.000000	250.442430 
465.500000	249.719428 
466.000000	249.078838 
466.500000	248.443377 
467.000000	247.833242 
467.500000	247.204709 
468.000000	246.589817 
468.500000	245.973280 
469.000000	245.308001 
469.500000	244.648864 
470.000000	244.005619 
470.500000	243.381394 
471.000000	242.790682 
471.500000	242.269887 
472.000000	241.738779 
472.500000	241.249894 
473.000000	240.741705 
473.500000	240.193991 
474.000000	239.548263 
474.500000	238.844179 
475.000000	238.117887 
475.500000	237.534453 
476.000000	237.066309 
476.500000	236.755750 
477.000000	236.563251 
477.500000	236.374482 
478.000000	236.078165 
478.500000	235.738945 
479.000000	235.291672 
479.500000	234.786358 
480.000000	234.262004 
480.500000	233.731200 
481.000000	233.134479 
481.500000	232.524748 
482.000000	231.804034 
482.500000	231.020733 
483.000000	230.235818 
483.500000	229.476076 
484.000000	228.747617 
484.500000	228.076347 
485.000000	227.363818 
485.500000	226.593076 
486.000000	225.792525 
486.500000	224.944214 
487.000000	224.077642 
487.500000	223.194525 
488.000000	222.254587 
488.500000	221.222082 
489.000000	220.150013 
489.500000	219.101284 
490.000000	218.070926 
490.500000	217.023937 
491.000000	215.921679 
491.500000	214.715529 
492.000000	213.382615 
492.500000	212.003637 
493.000000	210.572110 
493.500000	209.155560 
494.000000	207.787564 
494.500000	206.523000 
495.000000	205.314175 
495.500000	204.195274 
496.000000	203.055976 
496.500000	201.908311 
497.000000	200.704421 
497.500000	199.430760 
498.000000	198.067587 
498.500000	196.674960 
499.000000	195.271902 
499.500000	193.895168 
500.000000	192.567552 
500.500000	191.309064 
501.000000	190.044453 
501.500000	188.723153 
502.000000	187.370810 
502.500000	185.977076 
503.000000	184.564700 
503.500000	183.193112 
504.000000	181.839193 
504.500000	180.425746 
505.000000	179.005852 
505.500000	177.571602 
506.000000	176.113368 
506.500000	174.666052 
507.000000	173.229704 
507.500000	171.745973 
508.000000	170.189458 
508.500000	168.588297 
509.000000	167.005458 
509.500000	165.498336 
510.000000	164.055085 
510.500000	162.624280 
511.000000	161.085103 
511.500000	159.400535 
512.000000	157.567093 
512.500000	155.664267 
513.000000	153.729457 
513.500000	151.797164 
514.000000	149.823492 
514.500000	147.791143 
515.000000	145.677753 
515.500000	143.552241 
516.000000	141.439340 
516.500000	139.351521 
517.000000	137.285306 
517.500000	135.212601 
518.000000	133.054948 
518.500000	130.810599 
519.000000	128.503651 
519.500000	126.153783 
520.000000	123.809297 
520.500000	121.492768 
521.000000	119.175317 
521.500000	116.847104 
522.000000	114.500695 
522.500000	112.161153 
523.000000	109.846603 
523.500000	107.554125 
524.000000	105.292323 
524.500000	103.053408 
525.000000	100.815885 
525.500000	98.618956  
526.000000	96.502799  
526.500000	94.431488  
527.000000	92.395732  
527.500000	90.362735  
528.000000	88.284147  
528.500000	86.155545  
529.000000	84.022832  
529.500000	81.922578  
530.000000	79.882965  
530.500000	77.936691  
531.000000	76.103817  
531.500000	74.358069  
532.000000	72.647644  
532.500000	70.961119  
533.000000	69.280217  
533.500000	67.597232  
534.000000	65.946613  
534.500000	64.337032  
535.000000	62.758225  
535.500000	61.228246  
536.000000	59.759615  
536.500000	58.350193  
537.000000	57.001443  
537.500000	55.707377  
538.000000	54.450139  
538.500000	53.195969  
539.000000	51.953648  
539.500000	50.742227  
540.000000	49.577502  
540.500000	48.462592  
541.000000	47.413463  
541.500000	46.401145  
542.000000	45.414983  
542.500000	44.433672  
543.000000	43.429426  
543.500000	42.402767  
544.000000	41.390827  
544.500000	40.393345  
545.000000	39.444482  
545.500000	38.566398  
546.000000	37.735238  
546.500000	36.922264  
547.000000	36.141263  
547.500000	35.356214  
548.000000	34.573511  
548.500000	33.818606  
549.000000	33.087832  
549.500000	32.376588  
550.000000	31.702543  
550.500000	31.047764  
551.000000	30.396781  
551.500000	29.752054  
552.000000	29.115778  
552.500000	28.487663  
553.000000	27.878955  
553.500000	27.290405  
554.000000	26.729574  
554.500000	26.191172  
555.000000	25.664867  
555.500000	25.152004  
556.000000	24.654658  
556.500000	24.162652  
557.000000	23.669383  
557.500000	23.178655  
558.000000	22.684596  
558.500000	22.198223  
559.000000	21.724333  
559.500000	21.254242  
560.000000	20.787447  
560.500000	20.335977  
561.000000	19.895337  
561.500000	19.482652  
562.000000	19.083981  
562.500000	18.694039  
563.000000	18.313119  
563.500000	17.939179  
564.000000	17.558941  
564.500000	17.192948  
565.000000	16.836317  
565.500000	16.486947  
566.000000	16.147559  
566.500000	15.821986  
567.000000	15.493370  
567.500000	15.154852  
568.000000	14.809676  
568.500000	14.477576  
569.000000	14.156655  
569.500000	13.864097  
570.000000	13.597157  
570.500000	13.335680  
571.000000	13.076875  
571.500000	12.827220  
572.000000	12.574188  
572.500000	12.316739  
573.000000	12.053708  
573.500000	11.776962  
574.000000	11.493214  
574.500000	11.215281  
575.000000	10.941037  
575.500000	10.678857  
576.000000	10.424397  
576.500000	10.167896  
577.000000	9.923234   
577.500000	9.692446   
578.000000	9.464538   
578.500000	9.243781   
579.000000	9.027009   
579.500000	8.801896   
580.000000	8.582315   
580.500000	8.375529   
581.000000	8.181684   
581.500000	7.997218   
582.000000	7.823451   
582.500000	7.642990   
583.000000	7.463394   
583.500000	7.281419   
584.000000	7.112111   
584.500000	6.947967   
585.000000	6.794463   
585.500000	6.650562   
586.000000	6.518616   
586.500000	6.387697   
587.000000	6.263108   
587.500000	6.134458   
588.000000	6.002962   
588.500000	5.869260   
589.000000	5.736375   
589.500000	5.600111   
590.000000	5.468921   
590.500000	5.343287   
591.000000	5.223418   
591.500000	5.106935   
592.000000	4.993804   
592.500000	4.886956   
593.000000	4.785164   
593.500000	4.689305   
594.000000	4.598705   
594.500000	4.506412   
595.000000	4.409617   
595.500000	4.310655   
596.000000	4.209030   
596.500000	4.110496   

