PE FL                   SPECTRUM    ASCII       PEDS        1.60        
  -1
DLDAF2~1.TXT
18/03/08
16:03:23.00
18/03/08
16:03:23.00


596.500000
1









LS55
350.00
11.00
2.90
SCAN
1
20
100
100
0
60
0
1
0
1
7
ON
600 350 
1 0 0
#HDR
-1
-1
#GR
NM

0.00002384185791015625
0.0
400.000000
0.500000
394
8
542.932080
5.752234
#DATA
400.000000	66.966999  
400.500000	73.087198  
401.000000	79.169984  
401.500000	85.184648  
402.000000	91.189115  
402.500000	97.292157  
403.000000	103.619673 
403.500000	110.246973 
404.000000	117.169394 
404.500000	124.311280 
405.000000	131.573225 
405.500000	138.892001 
406.000000	146.271838 
406.500000	153.825111 
407.000000	161.603592 
407.500000	169.643377 
408.000000	177.825043 
408.500000	186.004794 
409.000000	194.017184 
409.500000	201.901033 
410.000000	209.577567 
410.500000	217.153793 
411.000000	224.697970 
411.500000	232.439234 
412.000000	240.487792 
412.500000	249.021594 
413.000000	257.953165 
413.500000	267.127601 
414.000000	276.227200 
414.500000	285.207090 
415.000000	293.921086 
415.500000	302.433439 
416.000000	311.070499 
416.500000	320.079248 
417.000000	329.423449 
417.500000	339.235792 
418.000000	349.252018 
418.500000	358.966616 
419.000000	368.299124 
419.500000	377.244970 
420.000000	385.848064 
420.500000	394.306789 
421.000000	402.782299 
421.500000	411.029313 
422.000000	418.860251 
422.500000	426.115362 
423.000000	432.904309 
423.500000	439.264217 
424.000000	445.460933 
424.500000	451.629405 
425.000000	457.788417 
425.500000	463.732623 
426.000000	469.535408 
426.500000	475.128998 
427.000000	480.589216 
427.500000	485.921020 
428.000000	491.063397 
428.500000	495.796898 
429.000000	499.921967 
429.500000	503.574810 
430.000000	507.075550 
430.500000	510.690524 
431.000000	514.615186 
431.500000	518.908221 
432.000000	523.115704 
432.500000	526.905642 
433.000000	530.061980 
433.500000	532.507260 
434.000000	534.286945 
434.500000	535.613246 
435.000000	536.627680 
435.500000	537.557599 
436.000000	538.495511 
436.500000	539.567075 
437.000000	540.741338 
437.500000	541.791239 
438.000000	542.526460 
438.500000	542.932080 
439.000000	542.900905 
439.500000	542.564422 
440.000000	542.210882 
440.500000	541.865619 
441.000000	541.441952 
441.500000	541.113638 
442.000000	540.662419 
442.500000	540.050136 
443.000000	539.282573 
443.500000	538.372058 
444.000000	537.149019 
444.500000	535.854527 
445.000000	534.405287 
445.500000	532.863065 
446.000000	531.188963 
446.500000	529.400732 
447.000000	527.343104 
447.500000	525.225001 
448.000000	523.084659 
448.500000	521.110444 
449.000000	519.196429 
449.500000	517.251534 
450.000000	515.031610 
450.500000	512.490556 
451.000000	509.704686 
451.500000	506.901461 
452.000000	504.153143 
452.500000	501.538566 
453.000000	498.903920 
453.500000	496.131330 
454.000000	493.298864 
454.500000	490.425001 
455.000000	487.491086 
455.500000	484.627482 
456.000000	481.750156 
456.500000	478.746165 
457.000000	475.734451 
457.500000	472.777319 
458.000000	469.845563 
458.500000	467.060225 
459.000000	464.340514 
459.500000	461.463355 
460.000000	458.533174 
460.500000	455.629033 
461.000000	452.763875 
461.500000	450.052895 
462.000000	447.561478 
462.500000	445.089170 
463.000000	442.624952 
463.500000	440.140864 
464.000000	437.677698 
464.500000	435.292043 
465.000000	433.168170 
465.500000	431.101684 
466.000000	429.135991 
466.500000	427.224806 
467.000000	425.334644 
467.500000	423.437854 
468.000000	421.671092 
468.500000	419.971757 
469.000000	418.364192 
469.500000	416.847085 
470.000000	415.339762 
470.500000	413.824475 
471.000000	412.372550 
471.500000	410.919277 
472.000000	409.463778 
472.500000	408.045602 
473.000000	406.666287 
473.500000	405.266984 
474.000000	403.904825 
474.500000	402.550246 
475.000000	401.219465 
475.500000	399.801316 
476.000000	398.360634 
476.500000	396.783768 
477.000000	395.211284 
477.500000	393.596161 
478.000000	392.031655 
478.500000	390.441817 
479.000000	388.937437 
479.500000	387.489835 
480.000000	386.159337 
480.500000	384.864435 
481.000000	383.581672 
481.500000	382.213301 
482.000000	380.764757 
482.500000	379.260496 
483.000000	377.715955 
483.500000	376.189712 
484.000000	374.638838 
484.500000	372.957801 
485.000000	371.160158 
485.500000	369.327680 
486.000000	367.419486 
486.500000	365.562999 
487.000000	363.807425 
487.500000	362.075414 
488.000000	360.355995 
488.500000	358.610881 
489.000000	356.727807 
489.500000	354.693853 
490.000000	352.551502 
490.500000	350.260834 
491.000000	347.866796 
491.500000	345.471323 
492.000000	343.203184 
492.500000	341.077716 
493.000000	339.084637 
493.500000	337.177428 
494.000000	335.228955 
494.500000	333.184046 
495.000000	331.131259 
495.500000	328.996255 
496.000000	326.707499 
496.500000	324.305454 
497.000000	321.733239 
497.500000	318.981193 
498.000000	316.207609 
498.500000	313.459887 
499.000000	310.671493 
499.500000	307.921998 
500.000000	305.214569 
500.500000	302.505191 
501.000000	299.865022 
501.500000	297.287244 
502.000000	294.713013 
502.500000	292.136456 
503.000000	289.558571 
503.500000	286.946889 
504.000000	284.324018 
504.500000	281.701217 
505.000000	279.153842 
505.500000	276.719055 
506.000000	274.370504 
506.500000	272.034888 
507.000000	269.610288 
507.500000	266.936778 
508.000000	264.081640 
508.500000	261.135490 
509.000000	258.215813 
509.500000	255.454156 
510.000000	252.842663 
510.500000	250.231016 
511.000000	247.498868 
511.500000	244.602200 
512.000000	241.544859 
512.500000	238.405726 
513.000000	235.221316 
513.500000	232.051527 
514.000000	228.856345 
514.500000	225.641390 
515.000000	222.324417 
515.500000	218.947352 
516.000000	215.496656 
516.500000	212.012850 
517.000000	208.473492 
517.500000	204.978616 
518.000000	201.486912 
518.500000	197.977619 
519.000000	194.450622 
519.500000	190.908629 
520.000000	187.276552 
520.500000	183.633566 
521.000000	179.971359 
521.500000	176.280514 
522.000000	172.610259 
522.500000	169.018821 
523.000000	165.441239 
523.500000	161.933624 
524.000000	158.522101 
524.500000	155.171596 
525.000000	151.823662 
525.500000	148.556595 
526.000000	145.291118 
526.500000	142.058320 
527.000000	138.852810 
527.500000	135.665006 
528.000000	132.401684 
528.500000	129.098958 
529.000000	125.742571 
529.500000	122.431516 
530.000000	119.262273 
530.500000	116.286178 
531.000000	113.461895 
531.500000	110.748018 
532.000000	108.085640 
532.500000	105.476366 
533.000000	102.951331 
533.500000	100.460747 
534.000000	97.995239  
534.500000	95.560602  
535.000000	93.141096  
535.500000	90.745078  
536.000000	88.466417  
536.500000	86.281200  
537.000000	84.157774  
537.500000	82.102136  
538.000000	80.105729  
538.500000	78.144716  
539.000000	76.252493  
539.500000	74.414877  
540.000000	72.638361  
540.500000	70.956345  
541.000000	69.364232  
541.500000	67.817405  
542.000000	66.303577  
542.500000	64.762899  
543.000000	63.201461  
543.500000	61.666100  
544.000000	60.205092  
544.500000	58.817545  
545.000000	57.513507  
545.500000	56.256605  
546.000000	55.030663  
546.500000	53.827433  
547.000000	52.655496  
547.500000	51.503191  
548.000000	50.369273  
548.500000	49.240366  
549.000000	48.153746  
549.500000	47.107694  
550.000000	46.119207  
550.500000	45.177704  
551.000000	44.250177  
551.500000	43.287230  
552.000000	42.303984  
552.500000	41.311739  
553.000000	40.349464  
553.500000	39.447917  
554.000000	38.620910  
554.500000	37.853668  
555.000000	37.133059  
555.500000	36.419818  
556.000000	35.693196  
556.500000	34.957546  
557.000000	34.204914  
557.500000	33.443316  
558.000000	32.687690  
558.500000	31.958052  
559.000000	31.245471  
559.500000	30.551899  
560.000000	29.878069  
560.500000	29.209596  
561.000000	28.550160  
561.500000	27.914412  
562.000000	27.309768  
562.500000	26.735553  
563.000000	26.194022  
563.500000	25.671638  
564.000000	25.139832  
564.500000	24.602040  
565.000000	24.079709  
565.500000	23.573058  
566.000000	23.086562  
566.500000	22.615796  
567.000000	22.131112  
567.500000	21.634849  
568.000000	21.137285  
568.500000	20.645998  
569.000000	20.173041  
569.500000	19.733626  
570.000000	19.301709  
570.500000	18.872882  
571.000000	18.457150  
571.500000	18.051048  
572.000000	17.655050  
572.500000	17.282337  
573.000000	16.917951  
573.500000	16.550373  
574.000000	16.178232  
574.500000	15.800700  
575.000000	15.415068  
575.500000	15.042926  
576.000000	14.687471  
576.500000	14.356012  
577.000000	14.038022  
577.500000	13.730740  
578.000000	13.426467  
578.500000	13.120543  
579.000000	12.806269  
579.500000	12.496700  
580.000000	12.184889  
580.500000	11.882510  
581.000000	11.595298  
581.500000	11.326327  
582.000000	11.067861  
582.500000	10.812654  
583.000000	10.552743  
583.500000	10.294411  
584.000000	10.040958  
584.500000	9.794492   
585.000000	9.571587   
585.500000	9.352941   
586.000000	9.134598   
586.500000	8.921735   
587.000000	8.719019   
587.500000	8.519920   
588.000000	8.340912   
588.500000	8.172034   
589.000000	8.007747   
589.500000	7.836666   
590.000000	7.667496   
590.500000	7.492195   
591.000000	7.315004   
591.500000	7.137511   
592.000000	6.968298   
592.500000	6.805700   
593.000000	6.656909   
593.500000	6.523158   
594.000000	6.402126   
594.500000	6.278601   
595.000000	6.150175   
595.500000	6.014965   
596.000000	5.878790   
596.500000	5.752234   

