PE FL                   SPECTRUM    ASCII       PEDS        1.60        
  -1
DL70DE~1.TXT
18/01/19
15:29:39.00
18/01/19
15:29:39.00


598.500000
1









LS55
350.00
3.00
2.50
SCAN
1
20
100
100
0
60
0
1
0
1
7
ON
600 350 
1 0 0
#HDR
-1
-1
#GR
NM

0.00002384185791015625
0.0
400.000000
0.500000
398
8
532.274000
12.231000
#DATA
400.000000	50.656000  
400.500000	59.076000  
401.000000	62.974000  
401.500000	65.658000  
402.000000	68.108999  
402.500000	70.864000  
403.000000	74.801000  
403.500000	78.396000  
404.000000	82.302000  
404.500000	86.203999  
405.000000	90.390000  
405.500000	95.608000  
406.000000	101.246000 
406.500000	105.750000 
407.000000	112.861000 
407.500000	116.943000 
408.000000	120.714000 
408.500000	126.718000 
409.000000	133.335000 
409.500000	137.288000 
410.000000	143.015000 
410.500000	151.853000 
411.000000	157.958000 
411.500000	163.593000 
412.000000	168.368000 
412.500000	175.656000 
413.000000	182.936000 
413.500000	189.816000 
414.000000	198.828000 
414.500000	207.462000 
415.000000	213.382000 
415.500000	218.054000 
416.000000	228.499000 
416.500000	237.059000 
417.000000	243.439000 
417.500000	248.943000 
418.000000	255.259000 
418.500000	266.545000 
419.000000	269.994000 
419.500000	275.249000 
420.000000	283.761000 
420.500000	291.555000 
421.000000	296.689000 
421.500000	306.594000 
422.000000	311.839000 
422.500000	316.958000 
423.000000	320.807000 
423.500000	326.468000 
424.000000	332.742000 
424.500000	338.794000 
425.000000	343.593000 
425.500000	348.368000 
426.000000	352.807000 
426.500000	357.549000 
427.000000	365.770000 
427.500000	369.419000 
428.000000	375.457000 
428.500000	376.453000 
429.000000	380.435000 
429.500000	389.952000 
430.000000	389.273000 
430.500000	400.075000 
431.000000	399.934000 
431.500000	403.543000 
432.000000	407.386000 
432.500000	410.282000 
433.000000	410.375000 
433.500000	416.447000 
434.000000	417.947000 
434.500000	422.581000 
435.000000	427.811000 
435.500000	432.872000 
436.000000	429.487000 
436.500000	437.627000 
437.000000	441.544000 
437.500000	442.951000 
438.000000	439.460000 
438.500000	448.508000 
439.000000	449.009000 
439.500000	456.033000 
440.000000	458.127000 
440.500000	460.579000 
441.000000	458.315000 
441.500000	463.168000 
442.000000	466.445000 
442.500000	465.414000 
443.000000	469.767000 
443.500000	468.805000 
444.000000	470.106000 
444.500000	473.563000 
445.000000	478.221000 
445.500000	481.060000 
446.000000	483.125000 
446.500000	482.327000 
447.000000	483.883000 
447.500000	486.383000 
448.000000	488.345000 
448.500000	488.134000 
449.000000	490.530000 
449.500000	493.327000 
450.000000	488.672000 
450.500000	487.699000 
451.000000	495.130000 
451.500000	495.774000 
452.000000	489.786000 
452.500000	494.854000 
453.000000	490.167000 
453.500000	495.210000 
454.000000	494.205000 
454.500000	493.971000 
455.000000	493.294000 
455.500000	498.109000 
456.000000	495.817000 
456.500000	498.627000 
457.000000	495.721000 
457.500000	494.290000 
458.000000	498.570000 
458.500000	499.873000 
459.000000	500.312000 
459.500000	498.860000 
460.000000	504.074000 
460.500000	502.352000 
461.000000	503.818000 
461.500000	504.387000 
462.000000	506.266000 
462.500000	504.424000 
463.000000	508.393000 
463.500000	505.056000 
464.000000	502.607000 
464.500000	509.030000 
465.000000	505.378000 
465.500000	509.819000 
466.000000	511.270000 
466.500000	504.731000 
467.000000	507.896000 
467.500000	507.265000 
468.000000	509.744000 
468.500000	510.747000 
469.000000	520.681000 
469.500000	514.621000 
470.000000	518.371000 
470.500000	517.229000 
471.000000	521.844000 
471.500000	521.979000 
472.000000	526.254000 
472.500000	525.322000 
473.000000	525.737000 
473.500000	528.446000 
474.000000	532.274000 
474.500000	527.664000 
475.000000	530.318000 
475.500000	528.035000 
476.000000	528.554999 
476.500000	522.923000 
477.000000	526.628000 
477.500000	523.291000 
478.000000	526.780999 
478.500000	523.485000 
479.000000	523.746000 
479.500000	526.260000 
480.000000	521.761999 
480.500000	527.278000 
481.000000	527.324000 
481.500000	528.089000 
482.000000	526.532000 
482.500000	526.514000 
483.000000	527.721000 
483.500000	528.593000 
484.000000	531.075000 
484.500000	529.328000 
485.000000	524.864000 
485.500000	527.654000 
486.000000	527.279000 
486.500000	529.576000 
487.000000	523.830000 
487.500000	526.085000 
488.000000	524.140000 
488.500000	521.556000 
489.000000	521.323000 
489.500000	516.710000 
490.000000	516.547000 
490.500000	519.217000 
491.000000	511.864000 
491.500000	506.424000 
492.000000	507.133000 
492.500000	506.086000 
493.000000	504.334000 
493.500000	506.061000 
494.000000	500.449000 
494.500000	497.256000 
495.000000	489.591000 
495.500000	489.244000 
496.000000	485.121000 
496.500000	480.868000 
497.000000	483.579000 
497.500000	471.907000 
498.000000	471.954000 
498.500000	470.591000 
499.000000	468.114000 
499.500000	462.770000 
500.000000	457.713000 
500.500000	455.042000 
501.000000	453.747000 
501.500000	451.348000 
502.000000	446.681000 
502.500000	444.343000 
503.000000	440.992000 
503.500000	434.544000 
504.000000	438.110000 
504.500000	434.273000 
505.000000	432.154000 
505.500000	426.568000 
506.000000	418.144000 
506.500000	418.541000 
507.000000	412.110000 
507.500000	410.732000 
508.000000	408.215000 
508.500000	403.082000 
509.000000	393.884000 
509.500000	396.437000 
510.000000	391.095000 
510.500000	383.378000 
511.000000	381.324000 
511.500000	377.730000 
512.000000	371.362000 
512.500000	371.356000 
513.000000	363.446000 
513.500000	361.980000 
514.000000	352.905000 
514.500000	349.536000 
515.000000	344.158000 
515.500000	334.933000 
516.000000	334.943000 
516.500000	333.389000 
517.000000	327.658000 
517.500000	317.373000 
518.000000	313.403000 
518.500000	307.746000 
519.000000	305.630000 
519.500000	296.843000 
520.000000	291.910000 
520.500000	287.634000 
521.000000	279.042000 
521.500000	275.394000 
522.000000	269.581000 
522.500000	263.356000 
523.000000	260.124000 
523.500000	251.764000 
524.000000	249.858000 
524.500000	244.699000 
525.000000	236.266000 
525.500000	234.012000 
526.000000	226.966000 
526.500000	220.684000 
527.000000	218.943000 
527.500000	213.168000 
528.000000	209.689000 
528.500000	204.708000 
529.000000	198.348000 
529.500000	191.899000 
530.000000	187.695000 
530.500000	186.233000 
531.000000	178.681000 
531.500000	176.116000 
532.000000	172.979000 
532.500000	169.265000 
533.000000	166.281000 
533.500000	162.265000 
534.000000	157.365000 
534.500000	154.562000 
535.000000	152.655000 
535.500000	148.969000 
536.000000	145.447000 
536.500000	139.648000 
537.000000	138.765000 
537.500000	134.868000 
538.000000	129.971000 
538.500000	127.630000 
539.000000	125.368000 
539.500000	123.093000 
540.000000	122.533000 
540.500000	118.211000 
541.000000	115.596000 
541.500000	113.028000 
542.000000	111.366000 
542.500000	108.518000 
543.000000	106.615000 
543.500000	103.678000 
544.000000	101.919000 
544.500000	100.058000 
545.000000	96.349999  
545.500000	94.281000  
546.000000	91.983999  
546.500000	90.628000  
547.000000	89.383000  
547.500000	87.739000  
548.000000	85.325999  
548.500000	81.983999  
549.000000	81.289000  
549.500000	81.611000  
550.000000	80.149000  
550.500000	77.933000  
551.000000	75.656000  
551.500000	74.150000  
552.000000	73.144000  
552.500000	71.040000  
553.000000	69.211000  
553.500000	66.983999  
554.000000	67.193000  
554.500000	66.239999  
555.000000	64.733999  
555.500000	62.949000  
556.000000	63.731000  
556.500000	60.260000  
557.000000	58.460000  
557.500000	57.015000  
558.000000	57.006000  
558.500000	56.315000  
559.000000	54.847000  
559.500000	52.713000  
560.000000	52.045000  
560.500000	51.706000  
561.000000	50.223000  
561.500000	49.375000  
562.000000	48.661000  
562.500000	47.134000  
563.000000	45.608000  
563.500000	44.336000  
564.000000	44.822000  
564.500000	44.332000  
565.000000	42.316000  
565.500000	41.990000  
566.000000	41.846000  
566.500000	41.560000  
567.000000	40.375000  
567.500000	37.471000  
568.000000	36.295000  
568.500000	36.540000  
569.000000	36.683000  
569.500000	35.016000  
570.000000	35.810000  
570.500000	33.723000  
571.000000	32.962000  
571.500000	32.757000  
572.000000	31.646000  
572.500000	30.565000  
573.000000	30.543000  
573.500000	29.759000  
574.000000	29.498000  
574.500000	29.206000  
575.000000	28.065000  
575.500000	26.880000  
576.000000	26.604000  
576.500000	26.760000  
577.000000	25.636000  
577.500000	24.694000  
578.000000	25.301000  
578.500000	24.434000  
579.000000	23.410000  
579.500000	23.365000  
580.000000	22.789000  
580.500000	21.429000  
581.000000	21.485000  
581.500000	20.265000  
582.000000	19.712000  
582.500000	19.584000  
583.000000	19.863000  
583.500000	19.298000  
584.000000	19.003000  
584.500000	19.456000  
585.000000	18.102000  
585.500000	17.982000  
586.000000	18.006000  
586.500000	17.231000  
587.000000	16.115000  
587.500000	17.332000  
588.000000	16.676000  
588.500000	15.473000  
589.000000	15.775000  
589.500000	14.832000  
590.000000	15.543000  
590.500000	15.019000  
591.000000	14.744000  
591.500000	14.261000  
592.000000	14.072000  
592.500000	14.543000  
593.000000	14.065000  
593.500000	13.520000  
594.000000	13.318000  
594.500000	13.162000  
595.000000	13.135000  
595.500000	13.358000  
596.000000	12.691000  
596.500000	12.677000  
597.000000	12.453000  
597.500000	12.787000  
598.000000	12.231000  
598.500000	12.678000  

