PE FL                   SPECTRUM    ASCII       PEDS        1.60        
  -1
DMDE03~1.TXT
18/03/08
11:37:40.00
18/03/08
11:37:40.00


596.500000
1









LS55
350.00
11.00
2.90
SCAN
1
20
100
100
0
60
0
1
0
1
7
ON
600 350 
1 0 0
#HDR
-1
-1
#GR
NM

0.00002384185791015625
0.0
400.000000
0.500000
394
8
826.523920
3.150510
#DATA
400.000000	30.944000  
400.500000	33.654944  
401.000000	36.370962  
401.500000	39.137735  
402.000000	42.026765  
402.500000	45.125386  
403.000000	48.558149  
403.500000	52.405538  
404.000000	56.645170  
404.500000	61.295393  
405.000000	66.316850  
405.500000	71.693682  
406.000000	77.423267  
406.500000	83.546387  
407.000000	89.967225  
407.500000	96.627919  
408.000000	103.435914 
408.500000	110.396603 
409.000000	117.501175 
409.500000	124.971280 
410.000000	132.884492 
410.500000	141.171887 
411.000000	149.725564 
411.500000	158.572145 
412.000000	167.618278 
412.500000	177.072850 
413.000000	187.125702 
413.500000	197.791541 
414.000000	208.943888 
414.500000	220.600672 
415.000000	232.562237 
415.500000	244.804955 
416.000000	257.393567 
416.500000	270.378050 
417.000000	283.654193 
417.500000	297.295557 
418.000000	311.275630 
418.500000	325.509389 
419.000000	340.100457 
419.500000	354.943758 
420.000000	370.062407 
420.500000	385.530574 
421.000000	401.494414 
421.500000	417.821281 
422.000000	434.525912 
422.500000	451.099648 
423.000000	467.290341 
423.500000	482.839725 
424.000000	497.813764 
424.500000	512.237700 
425.000000	526.657882 
425.500000	540.943316 
426.000000	555.187995 
426.500000	569.355391 
427.000000	583.454679 
427.500000	597.298874 
428.000000	611.112354 
428.500000	624.471790 
429.000000	637.340539 
429.500000	649.656124 
430.000000	661.497617 
430.500000	672.942532 
431.000000	684.240716 
431.500000	695.215428 
432.000000	706.024997 
432.500000	716.675923 
433.000000	726.983048 
433.500000	737.101781 
434.000000	746.789101 
434.500000	755.820185 
435.000000	764.330083 
435.500000	772.516846 
436.000000	780.190097 
436.500000	787.665304 
437.000000	794.551015 
437.500000	800.595517 
438.000000	805.808228 
438.500000	810.335234 
439.000000	814.159175 
439.500000	817.579665 
440.000000	820.552150 
440.500000	822.972504 
441.000000	824.843934 
441.500000	826.081165 
442.000000	826.523920 
442.500000	826.284649 
443.000000	825.484697 
443.500000	824.266142 
444.000000	822.811461 
444.500000	821.217668 
445.000000	819.342541 
445.500000	817.158211 
446.000000	814.550926 
446.500000	811.516995 
447.000000	807.950538 
447.500000	804.045663 
448.000000	799.673369 
448.500000	794.969662 
449.000000	790.042739 
449.500000	785.064439 
450.000000	779.847704 
450.500000	774.400331 
451.000000	768.588192 
451.500000	762.299990 
452.000000	755.611283 
452.500000	748.773527 
453.000000	741.757857 
453.500000	734.648839 
454.000000	727.433686 
454.500000	719.959609 
455.000000	712.175603 
455.500000	704.209525 
456.000000	696.212379 
456.500000	688.239924 
457.000000	680.280907 
457.500000	672.325789 
458.000000	664.288230 
458.500000	656.110709 
459.000000	647.927172 
459.500000	639.715355 
460.000000	631.522608 
460.500000	623.439301 
461.000000	615.438529 
461.500000	607.410481 
462.000000	599.576264 
462.500000	591.854319 
463.000000	584.374748 
463.500000	577.205122 
464.000000	570.249846 
464.500000	563.388308 
465.000000	556.659461 
465.500000	549.861015 
466.000000	543.157322 
466.500000	536.640199 
467.000000	530.327913 
467.500000	524.112330 
468.000000	517.886377 
468.500000	511.487214 
469.000000	505.048377 
469.500000	498.636962 
470.000000	492.417301 
470.500000	486.460163 
471.000000	480.675051 
471.500000	474.873350 
472.000000	469.060728 
472.500000	463.188475 
473.000000	457.342880 
473.500000	451.601435 
474.000000	445.971280 
474.500000	440.372962 
475.000000	434.779295 
475.500000	429.164249 
476.000000	423.514405 
476.500000	417.879124 
477.000000	412.298668 
477.500000	406.805165 
478.000000	401.413174 
478.500000	396.089442 
479.000000	390.756898 
479.500000	385.412103 
480.000000	380.121292 
480.500000	374.900341 
481.000000	369.866598 
481.500000	365.000171 
482.000000	360.102620 
482.500000	355.083069 
483.000000	349.898535 
483.500000	344.581009 
484.000000	339.242216 
484.500000	334.056163 
485.000000	329.071065 
485.500000	324.251665 
486.000000	319.516663 
486.500000	314.844920 
487.000000	310.125781 
487.500000	305.318850 
488.000000	300.423218 
488.500000	295.554779 
489.000000	290.685073 
489.500000	285.960340 
490.000000	281.371549 
490.500000	276.842154 
491.000000	272.243602 
491.500000	267.597668 
492.000000	262.874270 
492.500000	258.256029 
493.000000	253.765718 
493.500000	249.491315 
494.000000	245.387771 
494.500000	241.421114 
495.000000	237.500029 
495.500000	233.705072 
496.000000	229.922845 
496.500000	226.123209 
497.000000	222.355317 
497.500000	218.582087 
498.000000	214.807979 
498.500000	211.164449 
499.000000	207.656560 
499.500000	204.249534 
500.000000	200.986061 
500.500000	197.808924 
501.000000	194.698376 
501.500000	191.600394 
502.000000	188.504811 
502.500000	185.374859 
503.000000	182.281203 
503.500000	179.239730 
504.000000	176.274161 
504.500000	173.372294 
505.000000	170.578635 
505.500000	167.786705 
506.000000	165.029631 
506.500000	162.324730 
507.000000	159.640857 
507.500000	156.955729 
508.000000	154.352351 
508.500000	151.727343 
509.000000	149.092430 
509.500000	146.507234 
510.000000	143.972665 
510.500000	141.479251 
511.000000	139.058465 
511.500000	136.614479 
512.000000	134.063355 
512.500000	131.365450 
513.000000	128.572854 
513.500000	125.782588 
514.000000	123.053334 
514.500000	120.424963 
515.000000	117.896709 
515.500000	115.374336 
516.000000	112.853733 
516.500000	110.392707 
517.000000	107.973492 
517.500000	105.654345 
518.000000	103.416041 
518.500000	101.192085 
519.000000	98.931297  
519.500000	96.659875  
520.000000	94.335864  
520.500000	92.060627  
521.000000	89.842417  
521.500000	87.700874  
522.000000	85.573121  
522.500000	83.452199  
523.000000	81.282690  
523.500000	79.153986  
524.000000	77.079677  
524.500000	75.118570  
525.000000	73.210786  
525.500000	71.350327  
526.000000	69.479658  
526.500000	67.629903  
527.000000	65.784495  
527.500000	64.000354  
528.000000	62.241075  
528.500000	60.504629  
529.000000	58.791429  
529.500000	57.139047  
530.000000	55.533755  
530.500000	53.991189  
531.000000	52.478277  
531.500000	50.974744  
532.000000	49.511122  
532.500000	48.114970  
533.000000	46.795372  
533.500000	45.535271  
534.000000	44.328298  
534.500000	43.126832  
535.000000	41.932709  
535.500000	40.737442  
536.000000	39.573085  
536.500000	38.441203  
537.000000	37.370800  
537.500000	36.371531  
538.000000	35.442661  
538.500000	34.550041  
539.000000	33.688861  
539.500000	32.820020  
540.000000	31.964182  
540.500000	31.142345  
541.000000	30.365146  
541.500000	29.624280  
542.000000	28.911281  
542.500000	28.179189  
543.000000	27.433193  
543.500000	26.685638  
544.000000	25.961843  
544.500000	25.269209  
545.000000	24.630290  
545.500000	24.025004  
546.000000	23.429499  
546.500000	22.846868  
547.000000	22.294005  
547.500000	21.769952  
548.000000	21.281136  
548.500000	20.827157  
549.000000	20.377295  
549.500000	19.908814  
550.000000	19.441418  
550.500000	18.973249  
551.000000	18.512478  
551.500000	18.074581  
552.000000	17.669863  
552.500000	17.286330  
553.000000	16.924573  
553.500000	16.575022  
554.000000	16.227470  
554.500000	15.876048  
555.000000	15.524927  
555.500000	15.172712  
556.000000	14.828606  
556.500000	14.498019  
557.000000	14.173567  
557.500000	13.871509  
558.000000	13.571661  
558.500000	13.271174  
559.000000	12.970899  
559.500000	12.681683  
560.000000	12.391206  
560.500000	12.124119  
561.000000	11.865970  
561.500000	11.617047  
562.000000	11.369118  
562.500000	11.125168  
563.000000	10.874251  
563.500000	10.630591  
564.000000	10.393716  
564.500000	10.178326  
565.000000	9.978507   
565.500000	9.786813   
566.000000	9.588022   
566.500000	9.384407   
567.000000	9.168398   
567.500000	8.961372   
568.000000	8.767504   
568.500000	8.593347   
569.000000	8.427677   
569.500000	8.272256   
570.000000	8.109488   
570.500000	7.947991   
571.000000	7.776306   
571.500000	7.605527   
572.000000	7.432995   
572.500000	7.272944   
573.000000	7.116993   
573.500000	6.976661   
574.000000	6.835821   
574.500000	6.692824   
575.000000	6.546139   
575.500000	6.408500   
576.000000	6.267981   
576.500000	6.138704   
577.000000	6.014348   
577.500000	5.893976   
578.000000	5.776907   
578.500000	5.663991   
579.000000	5.543889   
579.500000	5.429125   
580.000000	5.314690   
580.500000	5.204940   
581.000000	5.109096   
581.500000	5.020987   
582.000000	4.928874   
582.500000	4.839008   
583.000000	4.741768   
583.500000	4.637039   
584.000000	4.540612   
584.500000	4.450001   
585.000000	4.366913   
585.500000	4.294841   
586.000000	4.228965   
586.500000	4.167846   
587.000000	4.112085   
587.500000	4.048488   
588.000000	3.982969   
588.500000	3.917175   
589.000000	3.850188   
589.500000	3.788228   
590.000000	3.733959   
590.500000	3.672433   
591.000000	3.614656   
591.500000	3.565458   
592.000000	3.523977   
592.500000	3.490198   
593.000000	3.466274   
593.500000	3.432076   
594.000000	3.390068   
594.500000	3.337782   
595.000000	3.281510   
595.500000	3.228813   
596.000000	3.187202   
596.500000	3.150510   

