PE FL                   SPECTRUM    ASCII       PEDS        1.60        
  -1
DMEAFC~1.TXT
18/03/06
17:04:24.00
18/03/06
17:04:24.00


596.500000
1









LS55
350.00
11.00
3.20
SCAN
1
20
100
100
0
60
0
1
0
1
7
ON
600 350 
1 0 0
#HDR
-1
-1
#GR
NM

0.00002384185791015625
0.0
400.000000
0.500000
394
8
301.115857
3.577983
#DATA
400.000000	51.705000  
400.500000	54.835340  
401.000000	57.963822  
401.500000	61.113193  
402.000000	64.295673  
402.500000	67.518898  
403.000000	70.784383  
403.500000	74.129521  
404.000000	77.617083  
404.500000	81.367258  
405.000000	85.417894  
405.500000	89.792073  
406.000000	94.331789  
406.500000	98.862271  
407.000000	103.245061 
407.500000	107.445761 
408.000000	111.453364 
408.500000	115.458432 
409.000000	119.551552 
409.500000	123.808913 
410.000000	128.212093 
410.500000	132.732712 
411.000000	137.281680 
411.500000	141.885861 
412.000000	146.577094 
412.500000	151.363693 
413.000000	156.249163 
413.500000	161.205068 
414.000000	166.154642 
414.500000	171.075998 
415.000000	175.976892 
415.500000	180.864398 
416.000000	185.754440 
416.500000	190.610149 
417.000000	195.382711 
417.500000	200.069818 
418.000000	204.710993 
418.500000	209.322161 
419.000000	213.941234 
419.500000	218.509047 
420.000000	222.963545 
420.500000	227.277576 
421.000000	231.449044 
421.500000	235.477594 
422.000000	239.472029 
422.500000	243.414259 
423.000000	247.254732 
423.500000	250.887612 
424.000000	254.261340 
424.500000	257.388400 
425.000000	260.345450 
425.500000	263.201119 
426.000000	266.062099 
426.500000	268.888019 
427.000000	271.666619 
427.500000	274.394598 
428.000000	277.026348 
428.500000	279.496716 
429.000000	281.944870 
429.500000	284.355949 
430.000000	286.736545 
430.500000	289.152878 
431.000000	291.516580 
431.500000	293.609504 
432.000000	295.391196 
432.500000	296.752046 
433.000000	297.730476 
433.500000	298.436305 
434.000000	298.989216 
434.500000	299.412340 
435.000000	299.780834 
435.500000	300.089631 
436.000000	300.345436 
436.500000	300.545012 
437.000000	300.703782 
437.500000	300.786986 
438.000000	300.891874 
438.500000	301.012205 
439.000000	301.108361 
439.500000	301.115857 
440.000000	300.994836 
440.500000	300.644659 
441.000000	300.141747 
441.500000	299.558237 
442.000000	298.906319 
442.500000	298.167248 
443.000000	297.366832 
443.500000	296.468797 
444.000000	295.546324 
444.500000	294.625937 
445.000000	293.740534 
445.500000	292.793705 
446.000000	291.768337 
446.500000	290.689757 
447.000000	289.607284 
447.500000	288.491944 
448.000000	287.421548 
448.500000	286.357913 
449.000000	285.313018 
449.500000	284.305034 
450.000000	283.309721 
450.500000	282.285776 
451.000000	281.213153 
451.500000	280.030782 
452.000000	278.699976 
452.500000	277.292472 
453.000000	275.814894 
453.500000	274.360101 
454.000000	272.987358 
454.500000	271.621041 
455.000000	270.203676 
455.500000	268.678569 
456.000000	266.953273 
456.500000	265.072092 
457.000000	263.250938 
457.500000	261.536292 
458.000000	259.974520 
458.500000	258.490979 
459.000000	256.923107 
459.500000	255.250903 
460.000000	253.513453 
460.500000	251.809729 
461.000000	250.258637 
461.500000	248.817567 
462.000000	247.380662 
462.500000	245.933854 
463.000000	244.433847 
463.500000	242.903058 
464.000000	241.471889 
464.500000	240.166740 
465.000000	238.942979 
465.500000	237.808958 
466.000000	236.713068 
466.500000	235.559981 
467.000000	234.418164 
467.500000	233.208976 
468.000000	231.979034 
468.500000	230.804725 
469.000000	229.737015 
469.500000	228.744412 
470.000000	227.844702 
470.500000	226.934421 
471.000000	225.941998 
471.500000	224.982023 
472.000000	224.062818 
472.500000	223.162923 
473.000000	222.382266 
473.500000	221.660428 
474.000000	220.902637 
474.500000	220.109983 
475.000000	219.296401 
475.500000	218.408585 
476.000000	217.526857 
476.500000	216.709835 
477.000000	215.939276 
477.500000	215.146580 
478.000000	214.381584 
478.500000	213.549157 
479.000000	212.646772 
479.500000	211.741557 
480.000000	210.868771 
480.500000	210.001704 
481.000000	209.187864 
481.500000	208.469875 
482.000000	207.768428 
482.500000	207.062517 
483.000000	206.342877 
483.500000	205.580160 
484.000000	204.708926 
484.500000	203.823863 
485.000000	202.936732 
485.500000	202.008313 
486.000000	201.032292 
486.500000	200.060612 
487.000000	199.018606 
487.500000	197.962645 
488.000000	196.903135 
488.500000	195.817642 
489.000000	194.683496 
489.500000	193.535015 
490.000000	192.395638 
490.500000	191.278164 
491.000000	190.164140 
491.500000	189.109581 
492.000000	188.094552 
492.500000	187.087382 
493.000000	186.064948 
493.500000	184.992947 
494.000000	183.806736 
494.500000	182.617892 
495.000000	181.446534 
495.500000	180.347497 
496.000000	179.343298 
496.500000	178.383735 
497.000000	177.351297 
497.500000	176.305523 
498.000000	175.179702 
498.500000	174.018152 
499.000000	172.886516 
499.500000	171.757165 
500.000000	170.585952 
500.500000	169.411878 
501.000000	168.178875 
501.500000	166.846156 
502.000000	165.500987 
502.500000	164.157425 
503.000000	162.869698 
503.500000	161.648631 
504.000000	160.479951 
504.500000	159.275104 
505.000000	158.006596 
505.500000	156.642510 
506.000000	155.248059 
506.500000	153.783725 
507.000000	152.330813 
507.500000	150.895849 
508.000000	149.451801 
508.500000	148.001659 
509.000000	146.593453 
509.500000	145.127370 
510.000000	143.623165 
510.500000	142.103369 
511.000000	140.554846 
511.500000	138.973861 
512.000000	137.420089 
512.500000	135.805108 
513.000000	134.094792 
513.500000	132.257860 
514.000000	130.297776 
514.500000	128.254368 
515.000000	126.191831 
515.500000	124.142905 
516.000000	122.129013 
516.500000	120.157578 
517.000000	118.225714 
517.500000	116.356956 
518.000000	114.505767 
518.500000	112.613161 
519.000000	110.649160 
519.500000	108.620347 
520.000000	106.538119 
520.500000	104.502262 
521.000000	102.535152 
521.500000	100.640184 
522.000000	98.757069  
522.500000	96.836450  
523.000000	94.872400  
523.500000	92.905061  
524.000000	90.964061  
524.500000	89.077789  
525.000000	87.238923  
525.500000	85.414616  
526.000000	83.595895  
526.500000	81.795850  
527.000000	80.000659  
527.500000	78.227107  
528.000000	76.453364  
528.500000	74.695748  
529.000000	72.965209  
529.500000	71.265803  
530.000000	69.581450  
530.500000	67.901516  
531.000000	66.185981  
531.500000	64.479016  
532.000000	62.851461  
532.500000	61.338126  
533.000000	59.928006  
533.500000	58.597563  
534.000000	57.281078  
534.500000	55.951711  
535.000000	54.646135  
535.500000	53.342287  
536.000000	52.074008  
536.500000	50.837891  
537.000000	49.623422  
537.500000	48.441571  
538.000000	47.335280  
538.500000	46.277044  
539.000000	45.273917  
539.500000	44.310061  
540.000000	43.361185  
540.500000	42.419518  
541.000000	41.504350  
541.500000	40.594435  
542.000000	39.695203  
542.500000	38.797468  
543.000000	37.906283  
543.500000	37.026764  
544.000000	36.171981  
544.500000	35.345383  
545.000000	34.545331  
545.500000	33.765316  
546.000000	33.014112  
546.500000	32.292065  
547.000000	31.603842  
547.500000	30.951110  
548.000000	30.315398  
548.500000	29.686096  
549.000000	29.065464  
549.500000	28.454175  
550.000000	27.849475  
550.500000	27.261119  
551.000000	26.674456  
551.500000	26.089602  
552.000000	25.517150  
552.500000	24.973634  
553.000000	24.456677  
553.500000	23.975776  
554.000000	23.509815  
554.500000	23.046969  
555.000000	22.580595  
555.500000	22.102605  
556.000000	21.621563  
556.500000	21.158294  
557.000000	20.712140  
557.500000	20.279110  
558.000000	19.864584  
558.500000	19.454898  
559.000000	19.048115  
559.500000	18.643631  
560.000000	18.247642  
560.500000	17.856085  
561.000000	17.475131  
561.500000	17.105181  
562.000000	16.742705  
562.500000	16.393923  
563.000000	16.052909  
563.500000	15.708870  
564.000000	15.353781  
564.500000	15.015198  
565.000000	14.684423  
565.500000	14.381389  
566.000000	14.109841  
566.500000	13.864454  
567.000000	13.615951  
567.500000	13.364707  
568.000000	13.079973  
568.500000	12.767043  
569.000000	12.443122  
569.500000	12.131278  
570.000000	11.842345  
570.500000	11.584974  
571.000000	11.342315  
571.500000	11.100196  
572.000000	10.857341  
572.500000	10.612510  
573.000000	10.379842  
573.500000	10.164882  
574.000000	9.953567   
574.500000	9.735921   
575.000000	9.515909   
575.500000	9.292981   
576.000000	9.081779   
576.500000	8.884023   
577.000000	8.693995   
577.500000	8.501050   
578.000000	8.301702   
578.500000	8.099866   
579.000000	7.907630   
579.500000	7.721457   
580.000000	7.539726   
580.500000	7.356974   
581.000000	7.168384   
581.500000	6.977885   
582.000000	6.793668   
582.500000	6.617145   
583.000000	6.456006   
583.500000	6.308644   
584.000000	6.170225   
584.500000	6.042817   
585.000000	5.920117   
585.500000	5.795873   
586.000000	5.667387   
586.500000	5.529476   
587.000000	5.392562   
587.500000	5.262525   
588.000000	5.147730   
588.500000	5.046743   
589.000000	4.956524   
589.500000	4.861260   
590.000000	4.761110   
590.500000	4.651062   
591.000000	4.540182   
591.500000	4.433860   
592.000000	4.337824   
592.500000	4.242755   
593.000000	4.149429   
593.500000	4.054357   
594.000000	3.962389   
594.500000	3.872941   
595.000000	3.792729   
595.500000	3.719122   
596.000000	3.650210   
596.500000	3.577983   

