PE FL                   SPECTRUM    ASCII       PEDS        1.60        
  -1
DM12AA~1.TXT
18/03/13
13:46:04.00
18/03/13
13:46:04.00


594.500000
1









LS55
350.00
11.00
9.00
SCAN
1
20
100
100
0
60
0
1
0
1
7
ON
600 350 
1 0 0
#HDR
-1
-1
#GR
NM

0.00002384185791015625
0.0
400.000000
0.500000
390
8
761.132852
3.952897
#DATA
400.000000	44.512999  
400.500000	46.425726  
401.000000	48.304627  
401.500000	50.179399  
402.000000	52.081910  
402.500000	54.043747  
403.000000	56.080777  
403.500000	58.245943  
404.000000	60.606999  
404.500000	63.222133  
405.000000	66.097270  
405.500000	69.210749  
406.000000	72.591025  
406.500000	76.218236  
407.000000	80.094532  
407.500000	84.192117  
408.000000	88.531698  
408.500000	93.159618  
409.000000	98.100334  
409.500000	103.380897 
410.000000	109.016608 
410.500000	115.086166 
411.000000	121.600069 
411.500000	128.598915 
412.000000	136.069868 
412.500000	143.999921 
413.000000	152.423117 
413.500000	161.324268 
414.000000	170.656619 
414.500000	180.358080 
415.000000	190.436844 
415.500000	200.860755 
416.000000	211.643881 
416.500000	222.777423 
417.000000	234.217273 
417.500000	246.035143 
418.000000	258.247411 
418.500000	270.857124 
419.000000	283.846456 
419.500000	297.220206 
420.000000	310.948578 
420.500000	324.971267 
421.000000	339.222309 
421.500000	353.584926 
422.000000	368.021780 
422.500000	382.449108 
423.000000	396.816820 
423.500000	411.107918 
424.000000	425.324336 
424.500000	439.446816 
425.000000	453.473881 
425.500000	467.401628 
426.000000	481.206318 
426.500000	494.942721 
427.000000	508.556526 
427.500000	522.026920 
428.000000	535.381481 
428.500000	548.613920 
429.000000	561.702478 
429.500000	574.589705 
430.000000	587.201758 
430.500000	599.456748 
431.000000	611.326790 
431.500000	622.768025 
432.000000	633.735321 
432.500000	644.267305 
433.000000	654.370114 
433.500000	664.096305 
434.000000	673.478541 
434.500000	682.494499 
435.000000	691.106370 
435.500000	699.331777 
436.000000	707.150052 
436.500000	714.489235 
437.000000	721.301405 
437.500000	727.501565 
438.000000	733.116394 
438.500000	738.210799 
439.000000	742.747479 
439.500000	746.713682 
440.000000	750.144223 
440.500000	753.093832 
441.000000	755.584022 
441.500000	757.619843 
442.000000	759.189731 
442.500000	760.250488 
443.000000	760.916189 
443.500000	761.132852 
444.000000	760.863141 
444.500000	760.110089 
445.000000	758.922396 
445.500000	757.320631 
446.000000	755.327240 
446.500000	752.988300 
447.000000	750.285094 
447.500000	747.339593 
448.000000	744.170450 
448.500000	740.780879 
449.000000	737.165984 
449.500000	733.353060 
450.000000	729.244529 
450.500000	724.835824 
451.000000	720.153275 
451.500000	715.119866 
452.000000	709.760548 
452.500000	704.131210 
453.000000	698.267015 
453.500000	692.172955 
454.000000	685.954104 
454.500000	679.621897 
455.000000	673.195247 
455.500000	666.694551 
456.000000	660.129607 
456.500000	653.497684 
457.000000	646.769071 
457.500000	639.918611 
458.000000	632.930536 
458.500000	625.820834 
459.000000	618.569237 
459.500000	611.157804 
460.000000	603.583213 
460.500000	595.876500 
461.000000	588.127681 
461.500000	580.350090 
462.000000	572.580665 
462.500000	564.877296 
463.000000	557.265825 
463.500000	549.738648 
464.000000	542.250003 
464.500000	534.749673 
465.000000	527.164597 
465.500000	519.496588 
466.000000	511.704848 
466.500000	503.759312 
467.000000	495.758547 
467.500000	487.827524 
468.000000	479.971857 
468.500000	472.202255 
469.000000	464.588582 
469.500000	457.153442 
470.000000	449.834939 
470.500000	442.612641 
471.000000	435.450724 
471.500000	428.362896 
472.000000	421.389584 
472.500000	414.538656 
473.000000	407.803185 
473.500000	401.206648 
474.000000	394.770605 
474.500000	388.446474 
475.000000	382.209450 
475.500000	376.036293 
476.000000	369.915567 
476.500000	363.837436 
477.000000	357.810161 
477.500000	351.864819 
478.000000	346.010733 
478.500000	340.261185 
479.000000	334.599385 
479.500000	329.012563 
480.000000	323.511810 
480.500000	318.069118 
481.000000	312.665843 
481.500000	307.291882 
482.000000	301.959937 
482.500000	296.688285 
483.000000	291.458541 
483.500000	286.283265 
484.000000	281.148551 
484.500000	276.089491 
485.000000	271.072536 
485.500000	266.097638 
486.000000	261.169048 
486.500000	256.311262 
487.000000	251.555132 
487.500000	246.891528 
488.000000	242.308616 
488.500000	237.783388 
489.000000	233.345003 
489.500000	228.950984 
490.000000	224.596423 
490.500000	220.265101 
491.000000	215.975942 
491.500000	211.756628 
492.000000	207.620446 
492.500000	203.584595 
493.000000	199.656238 
493.500000	195.868850 
494.000000	192.199833 
494.500000	188.649106 
495.000000	185.189246 
495.500000	181.803267 
496.000000	178.456716 
496.500000	175.124474 
497.000000	171.787149 
497.500000	168.447661 
498.000000	165.134630 
498.500000	161.845347 
499.000000	158.612286 
499.500000	155.446762 
500.000000	152.372646 
500.500000	149.398613 
501.000000	146.522315 
501.500000	143.720362 
502.000000	140.977518 
502.500000	138.275360 
503.000000	135.584879 
503.500000	132.905021 
504.000000	130.230394 
504.500000	127.567413 
505.000000	124.923083 
505.500000	122.316743 
506.000000	119.759915 
506.500000	117.278855 
507.000000	114.871320 
507.500000	112.524409 
508.000000	110.244055 
508.500000	108.021446 
509.000000	105.854041 
509.500000	103.730880 
510.000000	101.647684 
510.500000	99.600435  
511.000000	97.579242  
511.500000	95.575990  
512.000000	93.574916  
512.500000	91.558395  
513.000000	89.531984  
513.500000	87.501658  
514.000000	85.484655  
514.500000	83.488156  
515.000000	81.530433  
515.500000	79.623956  
516.000000	77.775847  
516.500000	75.985857  
517.000000	74.243718  
517.500000	72.544942  
518.000000	70.875134  
518.500000	69.228044  
519.000000	67.593761  
519.500000	65.975882  
520.000000	64.373760  
520.500000	62.795708  
521.000000	61.237969  
521.500000	59.702700  
522.000000	58.198131  
522.500000	56.721488  
523.000000	55.273573  
523.500000	53.859520  
524.000000	52.472524  
524.500000	51.121616  
525.000000	49.814354  
525.500000	48.534311  
526.000000	47.279469  
526.500000	46.042562  
527.000000	44.822307  
527.500000	43.610325  
528.000000	42.411822  
528.500000	41.231846  
529.000000	40.081301  
529.500000	38.972410  
530.000000	37.899575  
530.500000	36.859796  
531.000000	35.847244  
531.500000	34.858279  
532.000000	33.894770  
532.500000	32.962206  
533.000000	32.055612  
533.500000	31.181642  
534.000000	30.341074  
534.500000	29.532678  
535.000000	28.751915  
535.500000	27.992291  
536.000000	27.250135  
536.500000	26.531347  
537.000000	25.841252  
537.500000	25.176072  
538.000000	24.538000  
538.500000	23.928550  
539.000000	23.350492  
539.500000	22.797172  
540.000000	22.259620  
540.500000	21.730571  
541.000000	21.214426  
541.500000	20.707418  
542.000000	20.210821  
542.500000	19.720944  
543.000000	19.235284  
543.500000	18.766985  
544.000000	18.313846  
544.500000	17.873635  
545.000000	17.445742  
545.500000	17.041739  
546.000000	16.658262  
546.500000	16.297795  
547.000000	15.951821  
547.500000	15.612739  
548.000000	15.286832  
548.500000	14.965536  
549.000000	14.647533  
549.500000	14.326072  
550.000000	14.005854  
550.500000	13.689387  
551.000000	13.384659  
551.500000	13.092297  
552.000000	12.809989  
552.500000	12.546694  
553.000000	12.295729  
553.500000	12.060635  
554.000000	11.833374  
554.500000	11.608261  
555.000000	11.385901  
555.500000	11.169995  
556.000000	10.956822  
556.500000	10.742849  
557.000000	10.530292  
557.500000	10.318894  
558.000000	10.114815  
558.500000	9.917653   
559.000000	9.725409   
559.500000	9.540068   
560.000000	9.365691   
560.500000	9.198601   
561.000000	9.034781   
561.500000	8.873491   
562.000000	8.719139   
562.500000	8.571947   
563.000000	8.428918   
563.500000	8.289321   
564.000000	8.153261   
564.500000	8.025674   
565.000000	7.900836   
565.500000	7.774107   
566.000000	7.641851   
566.500000	7.509108   
567.000000	7.378873   
567.500000	7.251085   
568.000000	7.127121   
568.500000	7.006489   
569.000000	6.896552   
569.500000	6.793623   
570.000000	6.695942   
570.500000	6.596615   
571.000000	6.496503   
571.500000	6.396600   
572.000000	6.298267   
572.500000	6.203440   
573.000000	6.108902   
573.500000	6.018051   
574.000000	5.931060   
574.500000	5.848321   
575.000000	5.767669   
575.500000	5.687823   
576.000000	5.608056   
576.500000	5.531121   
577.000000	5.457895   
577.500000	5.386117   
578.000000	5.314363   
578.500000	5.245466   
579.000000	5.176931   
579.500000	5.109186   
580.000000	5.043029   
580.500000	4.977430   
581.000000	4.913412   
581.500000	4.852529   
582.000000	4.795221   
582.500000	4.738516   
583.000000	4.686543   
583.500000	4.636489   
584.000000	4.587220   
584.500000	4.540120   
585.000000	4.494823   
585.500000	4.451989   
586.000000	4.411943   
586.500000	4.375420   
587.000000	4.338632   
587.500000	4.303377   
588.000000	4.272636   
588.500000	4.243433   
589.000000	4.216152   
589.500000	4.190641   
590.000000	4.165759   
590.500000	4.141443   
591.000000	4.117669   
591.500000	4.092002   
592.000000	4.063501   
592.500000	4.038172   
593.000000	4.013808   
593.500000	3.990459   
594.000000	3.970157   
594.500000	3.952897   

