PE FL                   SPECTRUM    ASCII       PEDS        1.60        
  -1
DM06A2~1.TXT
18/03/13
14:26:49.00
18/03/13
14:26:49.00


594.500000
1









LS55
350.00
11.00
9.00
SCAN
1
20
100
100
0
60
0
1
0
1
7
ON
600 350 
1 0 0
#HDR
-1
-1
#GR
NM

0.00002384185791015625
0.0
400.000000
0.500000
390
8
674.966051
3.925737
#DATA
400.000000	48.136000  
400.500000	50.107810  
401.000000	52.089450  
401.500000	54.095806  
402.000000	56.162398  
402.500000	58.300079  
403.000000	60.567122  
403.500000	62.984784  
404.000000	65.593417  
404.500000	68.421325  
405.000000	71.497624  
405.500000	74.825123  
406.000000	78.409929  
406.500000	82.245684  
407.000000	86.297398  
407.500000	90.584837  
408.000000	95.131518  
408.500000	99.957996  
409.000000	105.085945 
409.500000	110.547308 
410.000000	116.395359 
410.500000	122.693701 
411.000000	129.469007 
411.500000	136.714856 
412.000000	144.444541 
412.500000	152.657602 
413.000000	161.324916 
413.500000	170.389428 
414.000000	179.770682 
414.500000	189.414927 
415.000000	199.286098 
415.500000	209.340720 
416.000000	219.573605 
416.500000	229.987725 
417.000000	240.583762 
417.500000	251.400843 
418.000000	262.406461 
418.500000	273.600373 
419.000000	284.950130 
419.500000	296.484253 
420.000000	308.174163 
420.500000	319.993632 
421.000000	331.918596 
421.500000	343.923463 
422.000000	356.017088 
422.500000	368.102256 
423.000000	380.149732 
423.500000	392.065673 
424.000000	403.855896 
424.500000	415.569919 
425.000000	427.247503 
425.500000	438.853951 
426.000000	450.377289 
426.500000	461.889567 
427.000000	473.331967 
427.500000	484.682590 
428.000000	495.828756 
428.500000	506.714734 
429.000000	517.407110 
429.500000	527.896077 
430.000000	538.125425 
430.500000	548.046462 
431.000000	557.700996 
431.500000	567.076722 
432.000000	576.189657 
432.500000	584.989228 
433.000000	593.422987 
433.500000	601.531953 
434.000000	609.304081 
434.500000	616.718729 
435.000000	623.682756 
435.500000	630.174582 
436.000000	636.188220 
436.500000	641.786933 
437.000000	646.958134 
437.500000	651.699871 
438.000000	656.047081 
438.500000	660.020405 
439.000000	663.584361 
439.500000	666.735282 
440.000000	669.376431 
440.500000	671.454276 
441.000000	673.032606 
441.500000	674.138620 
442.000000	674.778896 
442.500000	674.966051 
443.000000	674.760819 
443.500000	674.111295 
444.000000	673.094664 
444.500000	671.676146 
445.000000	669.866876 
445.500000	667.703706 
446.000000	665.246363 
446.500000	662.491809 
447.000000	659.463326 
447.500000	656.277604 
448.000000	652.871596 
448.500000	649.239739 
449.000000	645.356008 
449.500000	641.225914 
450.000000	636.834132 
450.500000	632.183406 
451.000000	627.285764 
451.500000	622.111875 
452.000000	616.763704 
452.500000	611.301915 
453.000000	605.689293 
453.500000	599.981003 
454.000000	594.196045 
454.500000	588.317800 
455.000000	582.356711 
455.500000	576.390475 
456.000000	570.358849 
456.500000	564.311718 
457.000000	558.313792 
457.500000	552.268593 
458.000000	546.220229 
458.500000	540.141474 
459.000000	533.940104 
459.500000	527.595703 
460.000000	521.157087 
460.500000	514.624805 
461.000000	508.080787 
461.500000	501.614140 
462.000000	495.184216 
462.500000	488.865350 
463.000000	482.681675 
463.500000	476.542778 
464.000000	470.470639 
464.500000	464.422122 
465.000000	458.344106 
465.500000	452.260080 
466.000000	446.182164 
466.500000	440.092699 
467.000000	434.046790 
467.500000	428.107393 
468.000000	422.218765 
468.500000	416.449273 
469.000000	410.800342 
469.500000	405.247612 
470.000000	399.790528 
470.500000	394.408361 
471.000000	389.087403 
471.500000	383.829430 
472.000000	378.680707 
472.500000	373.589519 
473.000000	368.597119 
473.500000	363.680086 
474.000000	358.796378 
474.500000	353.905659 
475.000000	348.998024 
475.500000	344.077004 
476.000000	339.124693 
476.500000	334.206291 
477.000000	329.329779 
477.500000	324.565725 
478.000000	319.928654 
478.500000	315.378724 
479.000000	310.894412 
479.500000	306.478239 
480.000000	302.103406 
480.500000	297.714739 
481.000000	293.293473 
481.500000	288.810422 
482.000000	284.304582 
482.500000	279.814124 
483.000000	275.311748 
483.500000	270.816973 
484.000000	266.394422 
484.500000	262.060962 
485.000000	257.841603 
485.500000	253.740676 
486.000000	249.741471 
486.500000	245.794304 
487.000000	241.929001 
487.500000	238.095698 
488.000000	234.267721 
488.500000	230.428017 
489.000000	226.572930 
489.500000	222.704695 
490.000000	218.855834 
490.500000	215.051069 
491.000000	211.269685 
491.500000	207.561739 
492.000000	203.949212 
492.500000	200.453383 
493.000000	197.061473 
493.500000	193.760515 
494.000000	190.523475 
494.500000	187.328958 
495.000000	184.184227 
495.500000	181.046819 
496.000000	177.914572 
496.500000	174.794113 
497.000000	171.708101 
497.500000	168.681371 
498.000000	165.709029 
498.500000	162.814423 
499.000000	159.981674 
499.500000	157.226406 
500.000000	154.513894 
500.500000	151.839350 
501.000000	149.212773 
501.500000	146.618358 
502.000000	144.081992 
502.500000	141.559318 
503.000000	139.072789 
503.500000	136.603196 
504.000000	134.178505 
504.500000	131.765271 
505.000000	129.355221 
505.500000	126.976813 
506.000000	124.613747 
506.500000	122.294004 
507.000000	119.998685 
507.500000	117.750582 
508.000000	115.548331 
508.500000	113.410313 
509.000000	111.320656 
509.500000	109.260729 
510.000000	107.244000 
510.500000	105.251290 
511.000000	103.264103 
511.500000	101.268156 
512.000000	99.259842  
512.500000	97.236147  
513.000000	95.211563  
513.500000	93.206088  
514.000000	91.209202  
514.500000	89.252034  
515.000000	87.351577  
515.500000	85.493646  
516.000000	83.687276  
516.500000	81.913750  
517.000000	80.161182  
517.500000	78.433013  
518.000000	76.733701  
518.500000	75.049419  
519.000000	73.374563  
519.500000	71.710471  
520.000000	70.043772  
520.500000	68.399670  
521.000000	66.769776  
521.500000	65.150124  
522.000000	63.552966  
522.500000	61.990588  
523.000000	60.475152  
523.500000	59.006788  
524.000000	57.584965  
524.500000	56.202170  
525.000000	54.859286  
525.500000	53.546877  
526.000000	52.253987  
526.500000	50.975323  
527.000000	49.701612  
527.500000	48.439395  
528.000000	47.188552  
528.500000	45.944483  
529.000000	44.716879  
529.500000	43.508937  
530.000000	42.323443  
530.500000	41.165315  
531.000000	40.040938  
531.500000	38.953633  
532.000000	37.904596  
532.500000	36.897696  
533.000000	35.932726  
533.500000	35.002554  
534.000000	34.099715  
534.500000	33.214495  
535.000000	32.344836  
535.500000	31.488224  
536.000000	30.656674  
536.500000	29.846629  
537.000000	29.059749  
537.500000	28.312799  
538.000000	27.605488  
538.500000	26.936415  
539.000000	26.296722  
539.500000	25.680687  
540.000000	25.076660  
540.500000	24.492967  
541.000000	23.918144  
541.500000	23.343752  
542.000000	22.779399  
542.500000	22.233067  
543.000000	21.708171  
543.500000	21.199252  
544.000000	20.713765  
544.500000	20.240933  
545.000000	19.789066  
545.500000	19.353708  
546.000000	18.926653  
546.500000	18.504378  
547.000000	18.090747  
547.500000	17.686976  
548.000000	17.293697  
548.500000	16.913509  
549.000000	16.541878  
549.500000	16.186867  
550.000000	15.845120  
550.500000	15.513655  
551.000000	15.187937  
551.500000	14.867124  
552.000000	14.548754  
552.500000	14.241356  
553.000000	13.946843  
553.500000	13.661101  
554.000000	13.387520  
554.500000	13.125260  
555.000000	12.875976  
555.500000	12.638858  
556.000000	12.407872  
556.500000	12.172515  
557.000000	11.936125  
557.500000	11.702574  
558.000000	11.470398  
558.500000	11.238562  
559.000000	11.006567  
559.500000	10.778419  
560.000000	10.558777  
560.500000	10.347022  
561.000000	10.142657  
561.500000	9.941833   
562.000000	9.752763   
562.500000	9.575148   
563.000000	9.401519   
563.500000	9.229321   
564.000000	9.059966   
564.500000	8.896050   
565.000000	8.737854   
565.500000	8.586662   
566.000000	8.437790   
566.500000	8.297033   
567.000000	8.162390   
567.500000	8.029809   
568.000000	7.895854   
568.500000	7.759681   
569.000000	7.622167   
569.500000	7.486687   
570.000000	7.355107   
570.500000	7.226746   
571.000000	7.107449   
571.500000	6.994377   
572.000000	6.888770   
572.500000	6.787037   
573.000000	6.684941   
573.500000	6.580082   
574.000000	6.477103   
574.500000	6.373939   
575.000000	6.268450   
575.500000	6.164102   
576.000000	6.058799   
576.500000	5.955239   
577.000000	5.857198   
577.500000	5.764043   
578.000000	5.673582   
578.500000	5.589171   
579.000000	5.510732   
579.500000	5.434377   
580.000000	5.360084   
580.500000	5.286016   
581.000000	5.209383   
581.500000	5.132750   
582.000000	5.055659   
582.500000	4.977906   
583.000000	4.903503   
583.500000	4.833023   
584.000000	4.764219   
584.500000	4.699323   
585.000000	4.641569   
585.500000	4.588210   
586.000000	4.538693   
586.500000	4.493460   
587.000000	4.449733   
587.500000	4.410665   
588.000000	4.374122   
588.500000	4.333122   
589.000000	4.289608   
589.500000	4.248146   
590.000000	4.207606   
590.500000	4.167792   
591.000000	4.129774   
591.500000	4.091879   
592.000000	4.059046   
592.500000	4.031818   
593.000000	4.003593   
593.500000	3.975792   
594.000000	3.950061   
594.500000	3.925737   

