PE FL                   SPECTRUM    ASCII       PEDS        1.60        
  -1
MIX1_L~3.TXT
18/01/18
16:12:31.00
18/01/18
16:12:31.00


598.500000
1









LS55
350.00
3.00
2.50
SCAN
1
20
100
100
0
60
0
1
0
1
7
ON
600 350 
1 0 0
#HDR
-1
-1
#GR
NM

0.00002384185791015625
0.0
400.000000
0.500000
398
8
610.862000
2.958000
#DATA
400.000000	172.732000 
400.500000	185.112000 
401.000000	192.118000 
401.500000	198.921000 
402.000000	204.905000 
402.500000	216.004000 
403.000000	223.318000 
403.500000	234.363000 
404.000000	244.598000 
404.500000	251.670000 
405.000000	262.466000 
405.500000	271.965000 
406.000000	283.043000 
406.500000	292.817000 
407.000000	298.145000 
407.500000	316.313000 
408.000000	325.798000 
408.500000	336.246000 
409.000000	344.983000 
409.500000	355.105000 
410.000000	362.736000 
410.500000	371.953000 
411.000000	384.252000 
411.500000	396.741000 
412.000000	403.142000 
412.500000	413.593000 
413.000000	426.494000 
413.500000	435.932000 
414.000000	443.550000 
414.500000	455.438000 
415.000000	466.241000 
415.500000	476.684000 
416.000000	485.247000 
416.500000	494.603000 
417.000000	506.088000 
417.500000	508.246000 
418.000000	516.422000 
418.500000	523.802000 
419.000000	531.956000 
419.500000	539.579000 
420.000000	549.166000 
420.500000	553.023000 
421.000000	560.969000 
421.500000	566.117000 
422.000000	571.087000 
422.500000	567.923000 
423.000000	578.797000 
423.500000	583.077000 
424.000000	588.061000 
424.500000	589.952000 
425.000000	592.006999 
425.500000	595.995000 
426.000000	599.276000 
426.500000	599.629000 
427.000000	595.247000 
427.500000	601.078000 
428.000000	606.270000 
428.500000	608.853000 
429.000000	610.862000 
429.500000	607.204000 
430.000000	602.475000 
430.500000	605.327000 
431.000000	603.118000 
431.500000	602.429999 
432.000000	605.333999 
432.500000	606.381000 
433.000000	605.549000 
433.500000	606.345000 
434.000000	603.878000 
434.500000	604.269000 
435.000000	601.621000 
435.500000	599.607000 
436.000000	600.924000 
436.500000	588.042000 
437.000000	594.080000 
437.500000	590.001000 
438.000000	591.215000 
438.500000	579.091000 
439.000000	581.135000 
439.500000	580.629000 
440.000000	578.627000 
440.500000	570.681000 
441.000000	568.642000 
441.500000	571.208000 
442.000000	559.380000 
442.500000	557.861000 
443.000000	551.302000 
443.500000	549.201000 
444.000000	540.653000 
444.500000	539.751000 
445.000000	533.530999 
445.500000	528.683000 
446.000000	524.691000 
446.500000	518.279000 
447.000000	515.101000 
447.500000	504.393000 
448.000000	498.446000 
448.500000	497.519000 
449.000000	488.054000 
449.500000	486.048000 
450.000000	475.819000 
450.500000	473.417000 
451.000000	465.724000 
451.500000	462.539000 
452.000000	452.526000 
452.500000	448.027000 
453.000000	448.619000 
453.500000	440.676000 
454.000000	432.174000 
454.500000	427.084000 
455.000000	423.420000 
455.500000	415.764000 
456.000000	409.068000 
456.500000	403.066000 
457.000000	397.413000 
457.500000	391.677000 
458.000000	388.511000 
458.500000	381.836000 
459.000000	376.244000 
459.500000	371.336000 
460.000000	361.109000 
460.500000	357.288000 
461.000000	351.896000 
461.500000	341.301000 
462.000000	341.194000 
462.500000	335.257000 
463.000000	331.297000 
463.500000	325.648000 
464.000000	321.570000 
464.500000	320.713000 
465.000000	313.867000 
465.500000	308.953000 
466.000000	303.058000 
466.500000	295.706000 
467.000000	294.107000 
467.500000	289.506000 
468.000000	285.350000 
468.500000	278.283000 
469.000000	277.835000 
469.500000	270.151000 
470.000000	268.858000 
470.500000	263.429000 
471.000000	260.288000 
471.500000	256.143000 
472.000000	253.004000 
472.500000	250.676000 
473.000000	248.244000 
473.500000	246.431000 
474.000000	239.252000 
474.500000	237.566000 
475.000000	232.359000 
475.500000	231.352000 
476.000000	228.736000 
476.500000	224.784000 
477.000000	221.387000 
477.500000	218.418000 
478.000000	215.656000 
478.500000	212.703000 
479.000000	210.383000 
479.500000	208.095000 
480.000000	204.882000 
480.500000	200.092000 
481.000000	200.323000 
481.500000	196.070000 
482.000000	198.264000 
482.500000	193.442000 
483.000000	189.875000 
483.500000	187.291000 
484.000000	180.383000 
484.500000	182.283000 
485.000000	179.406000 
485.500000	177.177000 
486.000000	175.048000 
486.500000	171.414000 
487.000000	170.059000 
487.500000	169.106000 
488.000000	166.387000 
488.500000	163.778000 
489.000000	161.341000 
489.500000	157.781000 
490.000000	154.608000 
490.500000	153.384000 
491.000000	150.778000 
491.500000	149.983000 
492.000000	148.632000 
492.500000	146.507000 
493.000000	142.245000 
493.500000	139.944000 
494.000000	138.864000 
494.500000	136.290000 
495.000000	134.688000 
495.500000	134.188000 
496.000000	131.632000 
496.500000	133.285000 
497.000000	130.183000 
497.500000	126.780000 
498.000000	124.793000 
498.500000	122.086000 
499.000000	121.064000 
499.500000	118.146000 
500.000000	117.821000 
500.500000	117.956000 
501.000000	114.570000 
501.500000	114.394000 
502.000000	111.159000 
502.500000	110.431000 
503.000000	109.181000 
503.500000	107.972000 
504.000000	107.860000 
504.500000	105.355000 
505.000000	104.007000 
505.500000	102.625000 
506.000000	100.112000 
506.500000	99.687000  
507.000000	98.684000  
507.500000	95.310000  
508.000000	93.687000  
508.500000	94.901000  
509.000000	92.545000  
509.500000	91.937000  
510.000000	91.659000  
510.500000	90.315000  
511.000000	88.759000  
511.500000	85.000000  
512.000000	83.364000  
512.500000	82.834000  
513.000000	82.120000  
513.500000	79.630000  
514.000000	76.287000  
514.500000	77.786000  
515.000000	75.684000  
515.500000	74.200000  
516.000000	71.212999  
516.500000	72.406000  
517.000000	71.450000  
517.500000	68.151000  
518.000000	66.735000  
518.500000	65.938000  
519.000000	63.904000  
519.500000	64.140000  
520.000000	60.376000  
520.500000	59.029000  
521.000000	59.555000  
521.500000	57.757000  
522.000000	56.568000  
522.500000	55.549000  
523.000000	55.098000  
523.500000	53.429000  
524.000000	51.393000  
524.500000	51.024000  
525.000000	50.554000  
525.500000	48.956000  
526.000000	47.679000  
526.500000	46.568000  
527.000000	44.633000  
527.500000	44.448000  
528.000000	42.785000  
528.500000	41.587000  
529.000000	39.840000  
529.500000	38.799000  
530.000000	39.262000  
530.500000	38.251000  
531.000000	36.652000  
531.500000	35.527000  
532.000000	34.170000  
532.500000	34.434000  
533.000000	33.047000  
533.500000	31.838000  
534.000000	31.732000  
534.500000	31.530000  
535.000000	30.391000  
535.500000	29.170000  
536.000000	27.912000  
536.500000	27.913000  
537.000000	26.688000  
537.500000	26.651000  
538.000000	24.998000  
538.500000	24.569000  
539.000000	23.348000  
539.500000	23.674000  
540.000000	23.251000  
540.500000	23.110000  
541.000000	22.183000  
541.500000	21.501000  
542.000000	20.966000  
542.500000	20.316000  
543.000000	20.213000  
543.500000	19.885000  
544.000000	19.301000  
544.500000	19.120000  
545.000000	18.787000  
545.500000	18.901000  
546.000000	17.929000  
546.500000	17.634000  
547.000000	16.676000  
547.500000	15.620000  
548.000000	16.819000  
548.500000	16.700000  
549.000000	16.130000  
549.500000	15.788000  
550.000000	15.069000  
550.500000	14.399000  
551.000000	14.544000  
551.500000	14.618000  
552.000000	12.905000  
552.500000	13.100000  
553.000000	13.128000  
553.500000	13.191000  
554.000000	13.262000  
554.500000	12.676000  
555.000000	12.738000  
555.500000	12.082000  
556.000000	12.030000  
556.500000	11.465000  
557.000000	10.941000  
557.500000	11.380000  
558.000000	10.708000  
558.500000	10.461000  
559.000000	10.232000  
559.500000	10.617000  
560.000000	10.148000  
560.500000	9.359000   
561.000000	9.781000   
561.500000	9.289000   
562.000000	9.071000   
562.500000	8.638999   
563.000000	8.515000   
563.500000	8.567000   
564.000000	8.548999   
564.500000	7.979000   
565.000000	8.069000   
565.500000	7.857000   
566.000000	7.366000   
566.500000	7.731000   
567.000000	7.919000   
567.500000	7.850000   
568.000000	7.808000   
568.500000	7.385000   
569.000000	7.056000   
569.500000	7.155000   
570.000000	7.318000   
570.500000	6.910000   
571.000000	7.215000   
571.500000	6.540000   
572.000000	6.654000   
572.500000	6.695000   
573.000000	6.349000   
573.500000	5.954000   
574.000000	5.788000   
574.500000	5.979000   
575.000000	5.925000   
575.500000	5.400000   
576.000000	5.536000   
576.500000	5.201000   
577.000000	5.120000   
577.500000	5.381000   
578.000000	5.409000   
578.500000	5.470000   
579.000000	4.817000   
579.500000	4.661000   
580.000000	5.075000   
580.500000	4.864000   
581.000000	4.761000   
581.500000	4.822000   
582.000000	5.149000   
582.500000	4.958000   
583.000000	4.503000   
583.500000	4.353000   
584.000000	4.353000   
584.500000	3.672000   
585.000000	4.132000   
585.500000	4.184000   
586.000000	3.988000   
586.500000	3.823000   
587.000000	3.922000   
587.500000	4.046000   
588.000000	4.088000   
588.500000	4.008000   
589.000000	3.720000   
589.500000	3.634000   
590.000000	3.738000   
590.500000	4.047000   
591.000000	3.545000   
591.500000	3.456000   
592.000000	3.392000   
592.500000	3.166000   
593.000000	3.274000   
593.500000	3.473000   
594.000000	3.585000   
594.500000	3.263000   
595.000000	3.030000   
595.500000	3.164000   
596.000000	3.013000   
596.500000	3.064000   
597.000000	3.326000   
597.500000	3.108000   
598.000000	3.010000   
598.500000	2.958000   

