PE FL                   SPECTRUM    ASCII       PEDS        1.60        
  -1
MI48BE~1.TXT
18/01/15
11:21:31.00
18/01/15
11:21:31.00


598.500000
1









LS55
350.00
3.00
2.50
SCAN
1
20
100
100
0
60
0
1
0
1
7
ON
600 350 
1 0 0
#HDR
-1
-1
#GR
NM

0.00002384185791015625
0.0
400.000000
0.500000
398
8
643.340000
9.409000
#DATA
400.000000	63.793000  
400.500000	66.086000  
401.000000	72.410000  
401.500000	76.370000  
402.000000	79.021000  
402.500000	84.254000  
403.000000	91.016000  
403.500000	96.533000  
404.000000	101.552000 
404.500000	108.618000 
405.000000	112.451000 
405.500000	119.111000 
406.000000	128.206000 
406.500000	135.738000 
407.000000	140.552000 
407.500000	148.296000 
408.000000	157.889000 
408.500000	164.245000 
409.000000	171.156000 
409.500000	181.471000 
410.000000	190.229000 
410.500000	198.961000 
411.000000	208.809000 
411.500000	218.625000 
412.000000	227.447000 
412.500000	237.166000 
413.000000	244.767000 
413.500000	260.741000 
414.000000	269.656000 
414.500000	277.613000 
415.000000	289.308000 
415.500000	302.227000 
416.000000	311.006000 
416.500000	322.624000 
417.000000	335.664000 
417.500000	341.981000 
418.000000	354.904000 
418.500000	366.415000 
419.000000	378.241000 
419.500000	383.453000 
420.000000	397.702000 
420.500000	403.220000 
421.000000	414.142000 
421.500000	423.376000 
422.000000	433.689000 
422.500000	442.246000 
423.000000	453.023000 
423.500000	461.658000 
424.000000	471.340000 
424.500000	475.713000 
425.000000	488.191000 
425.500000	493.657000 
426.000000	496.781000 
426.500000	504.750000 
427.000000	514.628000 
427.500000	520.601000 
428.000000	526.543000 
428.500000	534.062000 
429.000000	540.025000 
429.500000	546.153000 
430.000000	550.891000 
430.500000	555.352000 
431.000000	565.889000 
431.500000	567.985000 
432.000000	574.027000 
432.500000	578.605000 
433.000000	581.638000 
433.500000	589.071000 
434.000000	591.151000 
434.500000	596.938000 
435.000000	599.767000 
435.500000	607.939000 
436.000000	603.722000 
436.500000	605.849000 
437.000000	611.683000 
437.500000	613.179999 
438.000000	619.514000 
438.500000	619.284000 
439.000000	619.213000 
439.500000	622.725000 
440.000000	621.655000 
440.500000	627.069000 
441.000000	629.575000 
441.500000	633.480000 
442.000000	631.482999 
442.500000	634.177000 
443.000000	634.226000 
443.500000	639.226000 
444.000000	639.065000 
444.500000	639.893000 
445.000000	642.111000 
445.500000	637.223000 
446.000000	643.340000 
446.500000	633.923000 
447.000000	635.683000 
447.500000	636.116000 
448.000000	632.436000 
448.500000	635.075000 
449.000000	631.960000 
449.500000	634.610000 
450.000000	636.107000 
450.500000	634.951000 
451.000000	633.277000 
451.500000	630.745000 
452.000000	630.541000 
452.500000	627.703000 
453.000000	627.504000 
453.500000	628.862000 
454.000000	625.420000 
454.500000	624.401000 
455.000000	624.652000 
455.500000	621.691000 
456.000000	618.450000 
456.500000	618.990000 
457.000000	623.035999 
457.500000	615.509000 
458.000000	610.323000 
458.500000	608.929000 
459.000000	612.482999 
459.500000	613.956000 
460.000000	605.468000 
460.500000	611.377000 
461.000000	610.473000 
461.500000	604.963000 
462.000000	601.736000 
462.500000	596.914000 
463.000000	592.891000 
463.500000	597.618000 
464.000000	594.788000 
464.500000	592.423000 
465.000000	590.712000 
465.500000	588.353000 
466.000000	592.978000 
466.500000	588.610000 
467.000000	587.260000 
467.500000	582.653000 
468.000000	585.613000 
468.500000	580.487000 
469.000000	583.628000 
469.500000	577.341000 
470.000000	573.854000 
470.500000	574.875000 
471.000000	570.849000 
471.500000	568.961000 
472.000000	571.222000 
472.500000	566.413000 
473.000000	565.504000 
473.500000	565.259000 
474.000000	565.921000 
474.500000	565.040000 
475.000000	563.493000 
475.500000	562.006999 
476.000000	565.045000 
476.500000	558.502000 
477.000000	555.968000 
477.500000	554.143000 
478.000000	555.056000 
478.500000	551.484000 
479.000000	551.051000 
479.500000	548.585000 
480.000000	549.075000 
480.500000	547.988000 
481.000000	541.681000 
481.500000	538.249000 
482.000000	542.332000 
482.500000	538.475000 
483.000000	536.645000 
483.500000	533.827000 
484.000000	535.843000 
484.500000	529.204000 
485.000000	528.833999 
485.500000	530.772000 
486.000000	526.355000 
486.500000	526.792000 
487.000000	523.803000 
487.500000	519.665000 
488.000000	516.120000 
488.500000	514.294000 
489.000000	511.677000 
489.500000	506.808000 
490.000000	508.115000 
490.500000	500.815000 
491.000000	500.930000 
491.500000	499.645000 
492.000000	497.153000 
492.500000	492.385000 
493.000000	488.099000 
493.500000	485.729000 
494.000000	481.788000 
494.500000	479.530000 
495.000000	479.009000 
495.500000	475.277000 
496.000000	471.493000 
496.500000	472.498000 
497.000000	465.958000 
497.500000	464.303000 
498.000000	460.244000 
498.500000	454.554000 
499.000000	449.996000 
499.500000	446.648000 
500.000000	445.770000 
500.500000	442.021000 
501.000000	440.013000 
501.500000	435.180000 
502.000000	432.228000 
502.500000	426.263000 
503.000000	427.111000 
503.500000	422.495000 
504.000000	414.644000 
504.500000	410.555000 
505.000000	409.345000 
505.500000	403.898000 
506.000000	401.236000 
506.500000	398.634000 
507.000000	392.708000 
507.500000	388.336000 
508.000000	387.841000 
508.500000	386.648000 
509.000000	379.348000 
509.500000	376.850000 
510.000000	371.255000 
510.500000	365.506000 
511.000000	361.004000 
511.500000	358.881000 
512.000000	354.003000 
512.500000	348.868000 
513.000000	340.247000 
513.500000	337.337000 
514.000000	331.455000 
514.500000	326.533000 
515.000000	323.547000 
515.500000	323.532000 
516.000000	314.405000 
516.500000	307.635000 
517.000000	303.594000 
517.500000	299.016000 
518.000000	294.329000 
518.500000	286.470000 
519.000000	280.826000 
519.500000	274.835000 
520.000000	271.645000 
520.500000	265.221000 
521.000000	259.779000 
521.500000	256.159000 
522.000000	250.301000 
522.500000	246.539000 
523.000000	239.663000 
523.500000	232.137000 
524.000000	226.929000 
524.500000	221.909000 
525.000000	220.385000 
525.500000	213.210000 
526.000000	210.738000 
526.500000	203.030000 
527.000000	198.910000 
527.500000	193.334000 
528.000000	191.311000 
528.500000	187.369000 
529.000000	181.151000 
529.500000	175.869000 
530.000000	173.178000 
530.500000	170.153000 
531.000000	167.230000 
531.500000	161.289000 
532.000000	155.728000 
532.500000	153.103000 
533.000000	149.465000 
533.500000	143.954000 
534.000000	143.721000 
534.500000	140.254000 
535.000000	133.409000 
535.500000	130.952000 
536.000000	129.739000 
536.500000	125.046000 
537.000000	122.080000 
537.500000	119.572000 
538.000000	116.135000 
538.500000	112.262000 
539.000000	111.610000 
539.500000	108.564000 
540.000000	105.256000 
540.500000	103.658000 
541.000000	100.973000 
541.500000	98.683000  
542.000000	96.267000  
542.500000	94.485000  
543.000000	93.171000  
543.500000	90.513000  
544.000000	88.165000  
544.500000	86.940000  
545.000000	83.436000  
545.500000	82.825999  
546.000000	81.077000  
546.500000	79.825000  
547.000000	77.242999  
547.500000	74.474000  
548.000000	73.665000  
548.500000	72.153000  
549.000000	70.423000  
549.500000	70.099999  
550.000000	67.441999  
550.500000	64.242999  
551.000000	63.354000  
551.500000	63.418000  
552.000000	62.662000  
552.500000	61.288000  
553.000000	59.196000  
553.500000	58.867000  
554.000000	58.436000  
554.500000	56.478000  
555.000000	54.303000  
555.500000	54.047000  
556.000000	52.274000  
556.500000	51.889000  
557.000000	49.664000  
557.500000	50.497000  
558.000000	48.180000  
558.500000	46.191000  
559.000000	46.308000  
559.500000	44.880000  
560.000000	42.714000  
560.500000	44.197000  
561.000000	43.791000  
561.500000	42.845000  
562.000000	40.661000  
562.500000	40.728000  
563.000000	38.528000  
563.500000	37.757000  
564.000000	37.386000  
564.500000	36.418000  
565.000000	36.025000  
565.500000	35.465000  
566.000000	33.206000  
566.500000	32.840000  
567.000000	33.760000  
567.500000	31.228000  
568.000000	30.827000  
568.500000	31.281000  
569.000000	30.050000  
569.500000	30.330000  
570.000000	28.903000  
570.500000	27.648000  
571.000000	27.649000  
571.500000	27.066000  
572.000000	27.468000  
572.500000	26.858000  
573.000000	26.263000  
573.500000	26.356000  
574.000000	24.638000  
574.500000	23.870000  
575.000000	24.385000  
575.500000	22.637000  
576.000000	22.724000  
576.500000	21.685000  
577.000000	21.672000  
577.500000	20.814000  
578.000000	20.074000  
578.500000	20.888000  
579.000000	19.153000  
579.500000	19.433000  
580.000000	19.220000  
580.500000	19.217000  
581.000000	19.054000  
581.500000	18.010000  
582.000000	17.230000  
582.500000	16.707000  
583.000000	16.256000  
583.500000	15.915000  
584.000000	16.016000  
584.500000	15.043000  
585.000000	15.430000  
585.500000	14.552000  
586.000000	15.405000  
586.500000	15.056000  
587.000000	14.844000  
587.500000	13.670000  
588.000000	13.929000  
588.500000	13.525000  
589.000000	13.696000  
589.500000	13.068000  
590.000000	12.706000  
590.500000	12.444000  
591.000000	12.552000  
591.500000	12.184000  
592.000000	12.037000  
592.500000	12.356000  
593.000000	12.144000  
593.500000	11.317000  
594.000000	11.186000  
594.500000	10.553000  
595.000000	10.665000  
595.500000	10.783000  
596.000000	10.884000  
596.500000	10.727000  
597.000000	10.733000  
597.500000	10.088000  
598.000000	9.409000   
598.500000	9.705000   

