PE FL                   SPECTRUM    ASCII       PEDS        1.60        
  -1
MI05A0~1.TXT
18/01/15
10:28:38.00
18/01/15
10:28:38.00


598.500000
1









LS55
350.00
3.00
2.50
SCAN
1
20
100
100
0
60
0
1
0
1
7
ON
600 350 
1 0 0
#HDR
-1
-1
#GR
NM

0.00002384185791015625
0.0
400.000000
0.500000
398
8
880.530999
8.577000
#DATA
400.000000	73.227000  
400.500000	82.864000  
401.000000	88.663000  
401.500000	93.545000  
402.000000	100.610000 
402.500000	109.271000 
403.000000	115.401000 
403.500000	121.910000 
404.000000	131.360000 
404.500000	139.186000 
405.000000	148.847000 
405.500000	158.823000 
406.000000	167.058000 
406.500000	179.073000 
407.000000	192.129000 
407.500000	200.400000 
408.000000	210.358000 
408.500000	220.455000 
409.000000	230.950000 
409.500000	243.503000 
410.000000	257.155000 
410.500000	271.501000 
411.000000	285.034000 
411.500000	298.758000 
412.000000	312.326000 
412.500000	322.627000 
413.000000	344.791000 
413.500000	360.096000 
414.000000	377.070000 
414.500000	389.885000 
415.000000	403.346000 
415.500000	421.269000 
416.000000	440.550000 
416.500000	456.779000 
417.000000	477.476000 
417.500000	489.550000 
418.000000	509.583000 
418.500000	525.085000 
419.000000	535.528000 
419.500000	553.880000 
420.000000	571.415000 
420.500000	582.488000 
421.000000	600.009000 
421.500000	612.729000 
422.000000	628.853000 
422.500000	643.923000 
423.000000	658.697000 
423.500000	674.155999 
424.000000	680.307000 
424.500000	699.041000 
425.000000	712.453000 
425.500000	716.604000 
426.000000	721.326000 
426.500000	740.426000 
427.000000	748.204000 
427.500000	759.061000 
428.000000	765.783000 
428.500000	775.857000 
429.000000	783.940000 
429.500000	788.298000 
430.000000	797.622000 
430.500000	811.703000 
431.000000	817.018000 
431.500000	824.114000 
432.000000	833.414000 
432.500000	842.660999 
433.000000	842.774000 
433.500000	844.385000 
434.000000	846.753000 
434.500000	855.400000 
435.000000	861.684000 
435.500000	867.764000 
436.000000	868.131999 
436.500000	871.545000 
437.000000	868.204000 
437.500000	875.410000 
438.000000	877.026000 
438.500000	876.686000 
439.000000	877.356000 
439.500000	873.883000 
440.000000	874.900000 
440.500000	880.530999 
441.000000	879.250000 
441.500000	876.522000 
442.000000	877.154000 
442.500000	873.666000 
443.000000	872.628000 
443.500000	876.679000 
444.000000	868.428000 
444.500000	861.557000 
445.000000	860.397000 
445.500000	859.133000 
446.000000	856.655999 
446.500000	856.135000 
447.000000	851.830000 
447.500000	846.903000 
448.000000	845.452000 
448.500000	838.522000 
449.000000	832.319000 
449.500000	825.503000 
450.000000	828.651000 
450.500000	823.838000 
451.000000	811.671000 
451.500000	810.537000 
452.000000	810.405999 
452.500000	803.024000 
453.000000	800.985000 
453.500000	793.349000 
454.000000	785.748000 
454.500000	782.427000 
455.000000	777.721000 
455.500000	770.245000 
456.000000	760.837000 
456.500000	762.860000 
457.000000	755.849000 
457.500000	749.526000 
458.000000	744.999000 
458.500000	739.498000 
459.000000	735.498000 
459.500000	730.101000 
460.000000	725.349000 
460.500000	712.495000 
461.000000	710.068000 
461.500000	706.559999 
462.000000	700.847000 
462.500000	694.259000 
463.000000	683.753000 
463.500000	676.581000 
464.000000	672.246000 
464.500000	670.276000 
465.000000	663.628000 
465.500000	658.580000 
466.000000	651.405000 
466.500000	653.802000 
467.000000	644.392000 
467.500000	637.484000 
468.000000	631.069000 
468.500000	629.024000 
469.000000	623.833000 
469.500000	614.958999 
470.000000	612.126000 
470.500000	607.195000 
471.000000	604.025000 
471.500000	597.761000 
472.000000	591.079000 
472.500000	587.183000 
473.000000	581.631000 
473.500000	582.579000 
474.000000	578.041000 
474.500000	568.454000 
475.000000	561.881999 
475.500000	555.920000 
476.000000	553.941000 
476.500000	552.482999 
477.000000	550.693000 
477.500000	545.583000 
478.000000	535.969000 
478.500000	531.851000 
479.000000	528.216000 
479.500000	524.789000 
480.000000	519.587000 
480.500000	513.665000 
481.000000	513.802000 
481.500000	507.394000 
482.000000	504.142000 
482.500000	502.618000 
483.000000	496.781000 
483.500000	491.227000 
484.000000	488.168000 
484.500000	482.029000 
485.000000	478.356000 
485.500000	476.373000 
486.000000	473.778000 
486.500000	472.071000 
487.000000	467.629000 
487.500000	461.408000 
488.000000	458.213000 
488.500000	453.417000 
489.000000	448.630000 
489.500000	446.646000 
490.000000	441.599000 
490.500000	436.946000 
491.000000	433.088000 
491.500000	433.478000 
492.000000	431.965000 
492.500000	422.408000 
493.000000	415.593000 
493.500000	410.101000 
494.000000	405.998000 
494.500000	407.465000 
495.000000	403.066000 
495.500000	397.262000 
496.000000	395.866000 
496.500000	390.493000 
497.000000	385.510000 
497.500000	384.213000 
498.000000	380.813000 
498.500000	378.265000 
499.000000	372.548000 
499.500000	367.477000 
500.000000	366.513000 
500.500000	360.737000 
501.000000	353.432000 
501.500000	351.518000 
502.000000	353.349000 
502.500000	348.328000 
503.000000	342.184000 
503.500000	342.902000 
504.000000	335.620000 
504.500000	333.832000 
505.000000	329.165000 
505.500000	325.539000 
506.000000	319.446000 
506.500000	316.719000 
507.000000	314.312000 
507.500000	310.281000 
508.000000	307.489000 
508.500000	301.818000 
509.000000	297.991000 
509.500000	289.777000 
510.000000	287.890000 
510.500000	291.317000 
511.000000	280.013000 
511.500000	278.246000 
512.000000	269.668000 
512.500000	265.199000 
513.000000	264.605000 
513.500000	259.460000 
514.000000	256.581000 
514.500000	253.010000 
515.000000	245.532000 
515.500000	244.528000 
516.000000	240.095000 
516.500000	235.105000 
517.000000	229.153000 
517.500000	223.655000 
518.000000	219.931000 
518.500000	216.369000 
519.000000	213.615000 
519.500000	205.842000 
520.000000	204.120000 
520.500000	198.013000 
521.000000	194.028000 
521.500000	191.894000 
522.000000	188.342000 
522.500000	182.452000 
523.000000	177.849000 
523.500000	173.642000 
524.000000	167.712000 
524.500000	166.642000 
525.000000	161.609000 
525.500000	160.922000 
526.000000	156.539000 
526.500000	152.426000 
527.000000	147.934000 
527.500000	142.908000 
528.000000	141.318000 
528.500000	136.305000 
529.000000	134.234000 
529.500000	130.167000 
530.000000	125.921000 
530.500000	123.653000 
531.000000	119.700000 
531.500000	117.718000 
532.000000	116.086000 
532.500000	111.191000 
533.000000	107.798000 
533.500000	106.528000 
534.000000	103.546000 
534.500000	100.534000 
535.000000	100.266000 
535.500000	97.512000  
536.000000	95.821000  
536.500000	91.997000  
537.000000	90.062000  
537.500000	86.994000  
538.000000	86.693000  
538.500000	85.268000  
539.000000	82.385000  
539.500000	79.239999  
540.000000	76.549000  
540.500000	75.113000  
541.000000	74.133000  
541.500000	72.042000  
542.000000	69.307000  
542.500000	68.405000  
543.000000	66.624000  
543.500000	66.471000  
544.000000	63.032000  
544.500000	62.912000  
545.000000	60.961000  
545.500000	58.851000  
546.000000	57.895000  
546.500000	58.471000  
547.000000	56.538000  
547.500000	54.499000  
548.000000	52.422000  
548.500000	51.268000  
549.000000	51.611000  
549.500000	50.994000  
550.000000	49.195000  
550.500000	47.593000  
551.000000	46.348000  
551.500000	47.892000  
552.000000	46.438000  
552.500000	44.852000  
553.000000	43.562000  
553.500000	43.652000  
554.000000	41.999000  
554.500000	40.753000  
555.000000	40.653000  
555.500000	39.036000  
556.000000	39.121000  
556.500000	38.540000  
557.000000	38.740000  
557.500000	36.018000  
558.000000	35.496000  
558.500000	35.469000  
559.000000	34.239000  
559.500000	33.562000  
560.000000	32.073000  
560.500000	31.323000  
561.000000	31.986000  
561.500000	31.566000  
562.000000	29.899000  
562.500000	28.773000  
563.000000	28.606000  
563.500000	29.221000  
564.000000	27.669000  
564.500000	28.142000  
565.000000	26.842000  
565.500000	27.202000  
566.000000	26.291000  
566.500000	24.972000  
567.000000	25.433000  
567.500000	24.081000  
568.000000	23.034000  
568.500000	23.496000  
569.000000	23.550000  
569.500000	21.808000  
570.000000	21.124000  
570.500000	21.062000  
571.000000	20.223000  
571.500000	20.406000  
572.000000	19.623000  
572.500000	20.269000  
573.000000	19.204000  
573.500000	19.950000  
574.000000	19.142000  
574.500000	17.631000  
575.000000	18.283000  
575.500000	17.814000  
576.000000	17.339000  
576.500000	17.167000  
577.000000	16.505000  
577.500000	15.788000  
578.000000	15.558000  
578.500000	16.240000  
579.000000	15.773000  
579.500000	15.161000  
580.000000	14.400000  
580.500000	14.648000  
581.000000	14.718000  
581.500000	14.070000  
582.000000	14.221000  
582.500000	13.994000  
583.000000	13.377000  
583.500000	12.850000  
584.000000	13.132000  
584.500000	12.207000  
585.000000	12.237000  
585.500000	12.144000  
586.000000	11.338000  
586.500000	11.188000  
587.000000	11.754000  
587.500000	10.593000  
588.000000	11.158000  
588.500000	10.886000  
589.000000	10.419000  
589.500000	10.718000  
590.000000	11.057000  
590.500000	11.136000  
591.000000	10.334000  
591.500000	9.744999   
592.000000	10.302000  
592.500000	9.352000   
593.000000	9.677000   
593.500000	9.455000   
594.000000	8.960000   
594.500000	9.442000   
595.000000	9.500000   
595.500000	9.651999   
596.000000	8.944000   
596.500000	9.052000   
597.000000	9.093000   
597.500000	8.602000   
598.000000	8.577000   
598.500000	8.811000   

