PE FL       SUBTECH     SPECTRUM    ASCII       PEDS        1.60        
  -1
MIX_LQ_8.TXT
18/01/15
15:04:05.00
18/01/16
10:23:18.00


600.000000
1









LS55
350.00
3.00
2.50
SCAN
1
20
100
100
0
60
0
1
0
1
7
ON
600 350 
1 0 0
#HDR
-1
-1
#GR
NM

0.00002384185791015625
0.0
400.000000
0.500000
401
8
829.298000
4.017000
#DATA
400.000000	224.473000 
400.500000	239.680000 
401.000000	254.769000 
401.500000	264.999000 
402.000000	278.237000 
402.500000	287.084000 
403.000000	301.775000 
403.500000	311.936000 
404.000000	326.127000 
404.500000	337.059000 
405.000000	349.413000 
405.500000	361.949000 
406.000000	375.457000 
406.500000	392.964000 
407.000000	400.777000 
407.500000	418.147000 
408.000000	430.862000 
408.500000	446.291000 
409.000000	457.206000 
409.500000	471.559000 
410.000000	486.015000 
410.500000	498.844000 
411.000000	512.274000 
411.500000	529.030999 
412.000000	539.434000 
412.500000	554.575000 
413.000000	572.179000 
413.500000	583.785000 
414.000000	598.771000 
414.500000	611.727000 
415.000000	623.326000 
415.500000	637.824000 
416.000000	649.445000 
416.500000	667.408000 
417.000000	678.806000 
417.500000	687.467000 
418.000000	699.403000 
418.500000	705.530999 
419.000000	715.703000 
419.500000	730.570000 
420.000000	734.684000 
420.500000	741.261000 
421.000000	752.361000 
421.500000	759.567000 
422.000000	772.622000 
422.500000	775.152000 
423.000000	780.587000 
423.500000	787.008000 
424.000000	793.206000 
424.500000	801.269000 
425.000000	808.128000 
425.500000	805.563000 
426.000000	808.807000 
426.500000	813.381000 
427.000000	813.419000 
427.500000	817.490000 
428.000000	818.807000 
428.500000	823.755000 
429.000000	829.298000 
429.500000	825.260000 
430.000000	821.714000 
430.500000	825.485000 
431.000000	821.554000 
431.500000	825.884000 
432.000000	825.029000 
432.500000	823.764000 
433.000000	820.730000 
433.500000	821.049000 
434.000000	820.850000 
434.500000	826.056000 
435.000000	817.612000 
435.500000	820.657000 
436.000000	819.265000 
436.500000	817.778000 
437.000000	811.287000 
437.500000	805.340000 
438.000000	806.401000 
438.500000	804.836000 
439.000000	800.950000 
439.500000	796.010000 
440.000000	795.227000 
440.500000	789.490000 
441.000000	786.488000 
441.500000	783.501000 
442.000000	776.218000 
442.500000	772.422000 
443.000000	765.509000 
443.500000	760.893000 
444.000000	747.899000 
444.500000	747.445000 
445.000000	739.153000 
445.500000	730.841000 
446.000000	722.870000 
446.500000	718.953000 
447.000000	715.514000 
447.500000	709.771000 
448.000000	699.724000 
448.500000	695.343000 
449.000000	691.042000 
449.500000	680.702000 
450.000000	675.881999 
450.500000	668.190000 
451.000000	659.183000 
451.500000	648.994000 
452.000000	642.625000 
452.500000	635.819000 
453.000000	630.554999 
453.500000	620.885000 
454.000000	613.498000 
454.500000	608.317000 
455.000000	598.251000 
455.500000	593.302000 
456.000000	581.077000 
456.500000	575.376000 
457.000000	570.926000 
457.500000	567.569000 
458.000000	555.390000 
458.500000	545.658000 
459.000000	542.029000 
459.500000	534.316000 
460.000000	524.345000 
460.500000	513.949000 
461.000000	509.139000 
461.500000	500.669000 
462.000000	497.172000 
462.500000	487.055000 
463.000000	483.013000 
463.500000	475.423000 
464.000000	467.405000 
464.500000	460.475000 
465.000000	456.239000 
465.500000	447.308000 
466.000000	445.915000 
466.500000	434.994000 
467.000000	429.753000 
467.500000	427.409000 
468.000000	420.904000 
468.500000	419.641000 
469.000000	406.230000 
469.500000	402.908000 
470.000000	397.878000 
470.500000	392.765000 
471.000000	388.466000 
471.500000	382.249000 
472.000000	376.569000 
472.500000	373.683000 
473.000000	373.036000 
473.500000	363.821000 
474.000000	363.052000 
474.500000	358.007000 
475.000000	352.126000 
475.500000	350.066000 
476.000000	341.355000 
476.500000	337.036000 
477.000000	333.841000 
477.500000	333.753000 
478.000000	325.619000 
478.500000	320.623000 
479.000000	319.680000 
479.500000	314.324000 
480.000000	309.677000 
480.500000	310.571000 
481.000000	304.269000 
481.500000	301.417000 
482.000000	294.349000 
482.500000	293.937000 
483.000000	289.685000 
483.500000	284.334000 
484.000000	282.714000 
484.500000	277.866000 
485.000000	276.350000 
485.500000	273.599000 
486.000000	267.408000 
486.500000	264.152000 
487.000000	259.666000 
487.500000	258.375000 
488.000000	259.568000 
488.500000	252.100000 
489.000000	249.563000 
489.500000	247.983000 
490.000000	242.292000 
490.500000	240.091000 
491.000000	239.879000 
491.500000	238.198000 
492.000000	232.415000 
492.500000	230.319000 
493.000000	224.686000 
493.500000	225.962000 
494.000000	222.244000 
494.500000	217.930000 
495.000000	219.471000 
495.500000	215.613000 
496.000000	210.917000 
496.500000	210.076000 
497.000000	206.726000 
497.500000	203.569000 
498.000000	201.925000 
498.500000	198.868000 
499.000000	201.935000 
499.500000	196.280000 
500.000000	191.262000 
500.500000	189.490000 
501.000000	186.878000 
501.500000	187.520000 
502.000000	183.435000 
502.500000	179.854000 
503.000000	179.123000 
503.500000	179.068000 
504.000000	176.568000 
504.500000	173.749000 
505.000000	169.208000 
505.500000	170.159000 
506.000000	166.015000 
506.500000	162.262000 
507.000000	162.758000 
507.500000	156.409000 
508.000000	157.029000 
508.500000	155.077000 
509.000000	153.120000 
509.500000	150.801000 
510.000000	149.335000 
510.500000	145.306000 
511.000000	144.022000 
511.500000	143.324000 
512.000000	139.522000 
512.500000	137.128000 
513.000000	135.516000 
513.500000	133.826000 
514.000000	130.893000 
514.500000	127.196000 
515.000000	127.076000 
515.500000	123.571000 
516.000000	119.963000 
516.500000	120.986000 
517.000000	119.022000 
517.500000	114.382000 
518.000000	113.107000 
518.500000	110.768000 
519.000000	109.689000 
519.500000	107.824000 
520.000000	105.308000 
520.500000	101.621000 
521.000000	100.214000 
521.500000	97.872000  
522.000000	94.742999  
522.500000	93.950999  
523.000000	92.426000  
523.500000	89.095000  
524.000000	87.031000  
524.500000	86.239999  
525.000000	84.187000  
525.500000	81.206000  
526.000000	78.319000  
526.500000	76.882000  
527.000000	75.732000  
527.500000	73.367000  
528.000000	73.268000  
528.500000	70.846000  
529.000000	68.799000  
529.500000	66.188000  
530.000000	64.042000  
530.500000	64.217000  
531.000000	61.581000  
531.500000	59.558000  
532.000000	57.513000  
532.500000	57.167000  
533.000000	56.045000  
533.500000	54.926000  
534.000000	52.722000  
534.500000	51.548000  
535.000000	52.408000  
535.500000	50.197000  
536.000000	48.897000  
536.500000	48.609000  
537.000000	46.120000  
537.500000	43.547000  
538.000000	43.470000  
538.500000	43.140000  
539.000000	41.697000  
539.500000	40.476000  
540.000000	39.894000  
540.500000	38.833000  
541.000000	38.722000  
541.500000	37.236000  
542.000000	35.931000  
542.500000	34.822000  
543.000000	35.170000  
543.500000	34.567000  
544.000000	32.455000  
544.500000	32.293000  
545.000000	32.381000  
545.500000	30.843000  
546.000000	30.676000  
546.500000	29.768000  
547.000000	29.024000  
547.500000	28.453000  
548.000000	28.887000  
548.500000	27.912000  
549.000000	26.968000  
549.500000	25.733000  
550.000000	24.951000  
550.500000	25.226000  
551.000000	24.322000  
551.500000	24.332000  
552.000000	23.436000  
552.500000	23.628000  
553.000000	22.608000  
553.500000	22.806000  
554.000000	22.223000  
554.500000	21.538000  
555.000000	20.684000  
555.500000	20.450000  
556.000000	19.566000  
556.500000	19.764000  
557.000000	18.830000  
557.500000	18.910000  
558.000000	18.796000  
558.500000	17.948000  
559.000000	17.263000  
559.500000	17.455000  
560.000000	17.619000  
560.500000	16.194000  
561.000000	16.479000  
561.500000	15.935000  
562.000000	15.104000  
562.500000	15.157000  
563.000000	14.678000  
563.500000	14.531000  
564.000000	13.865000  
564.500000	13.512000  
565.000000	12.846000  
565.500000	13.101000  
566.000000	13.403000  
566.500000	12.498000  
567.000000	12.942000  
567.500000	12.638000  
568.000000	12.286000  
568.500000	11.977000  
569.000000	11.744000  
569.500000	11.706000  
570.000000	11.242000  
570.500000	11.596000  
571.000000	11.265000  
571.500000	10.929000  
572.000000	10.591000  
572.500000	10.615000  
573.000000	9.778000   
573.500000	9.574000   
574.000000	9.951000   
574.500000	9.035000   
575.000000	9.199000   
575.500000	8.827999   
576.000000	8.648000   
576.500000	8.403000   
577.000000	8.163000   
577.500000	8.659000   
578.000000	8.425000   
578.500000	8.346000   
579.000000	8.103999   
579.500000	8.037000   
580.000000	7.909000   
580.500000	7.876000   
581.000000	7.565000   
581.500000	7.164000   
582.000000	7.465000   
582.500000	6.756000   
583.000000	6.936000   
583.500000	6.842000   
584.000000	6.635000   
584.500000	7.041000   
585.000000	6.564000   
585.500000	6.278000   
586.000000	5.948000   
586.500000	6.200000   
587.000000	6.380000   
587.500000	5.945000   
588.000000	5.959000   
588.500000	6.150000   
589.000000	5.972000   
589.500000	5.542000   
590.000000	5.141000   
590.500000	5.673000   
591.000000	5.517000   
591.500000	5.034000   
592.000000	5.352000   
592.500000	5.246000   
593.000000	5.237000   
593.500000	4.752000   
594.000000	4.830000   
594.500000	4.920000   
595.000000	5.193000   
595.500000	4.944000   
596.000000	4.762000   
596.500000	4.324000   
597.000000	4.245000   
597.500000	4.497000   
598.000000	4.592000   
598.500000	4.372000   
599.000000	4.017000   
599.500000	4.126000   
600.000000	4.444000   

