PE FL                   SPECTRUM    ASCII       PEDS        1.60        
  -1
MIAAAE~1.TXT
18/03/14
12:09:06.00
18/03/14
12:09:06.00


596.500000
1









LS55
350.00
11.00
3.00
SCAN
1
20
100
100
0
60
0
1
0
1
7
ON
600 350 
1 0 0
#HDR
-1
-1
#GR
NM

0.00002384185791015625
0.0
400.000000
0.500000
394
8
435.223336
5.214391
#DATA
400.000000	40.791000  
400.500000	44.280827  
401.000000	47.725061  
401.500000	51.169811  
402.000000	54.637156  
402.500000	58.186817  
403.000000	61.892983  
403.500000	65.775364  
404.000000	69.810919  
404.500000	74.028555  
405.000000	78.402004  
405.500000	82.942182  
406.000000	87.690570  
406.500000	92.662615  
407.000000	97.796133  
407.500000	103.100331 
408.000000	108.523765 
408.500000	114.050181 
409.000000	119.711835 
409.500000	125.578778 
410.000000	131.601182 
410.500000	137.705663 
411.000000	143.858535 
411.500000	150.058193 
412.000000	156.360592 
412.500000	162.870365 
413.000000	169.648665 
413.500000	176.604011 
414.000000	183.595842 
414.500000	190.605818 
415.000000	197.632977 
415.500000	204.614768 
416.000000	211.698493 
416.500000	218.873523 
417.000000	226.015983 
417.500000	233.215504 
418.000000	240.577080 
418.500000	248.024488 
419.000000	255.640467 
419.500000	263.362259 
420.000000	271.049446 
420.500000	278.673921 
421.000000	286.256105 
421.500000	293.658023 
422.000000	300.905499 
422.500000	307.827548 
423.000000	314.388341 
423.500000	320.521075 
424.000000	326.314622 
424.500000	331.825468 
425.000000	337.263092 
425.500000	342.537762 
426.000000	347.694973 
426.500000	352.613672 
427.000000	357.289432 
427.500000	361.626489 
428.000000	365.755168 
428.500000	369.640463 
429.000000	373.375969 
429.500000	376.948435 
430.000000	380.420075 
430.500000	383.808488 
431.000000	387.263891 
431.500000	390.849566 
432.000000	394.537483 
432.500000	398.276732 
433.000000	401.973750 
433.500000	405.581269 
434.000000	409.065958 
434.500000	412.516506 
435.000000	415.841220 
435.500000	419.009536 
436.000000	421.822149 
436.500000	424.269538 
437.000000	426.240973 
437.500000	427.953260 
438.000000	429.437867 
438.500000	430.785599 
439.000000	431.989529 
439.500000	433.006040 
440.000000	433.681771 
440.500000	434.141930 
441.000000	434.451637 
441.500000	434.731225 
442.000000	435.007350 
442.500000	435.223336 
443.000000	435.218163 
443.500000	434.970065 
444.000000	434.529754 
444.500000	434.015231 
445.000000	433.497651 
445.500000	432.962517 
446.000000	432.333735 
446.500000	431.490888 
447.000000	430.418412 
447.500000	429.267779 
448.000000	428.020747 
448.500000	426.803620 
449.000000	425.719953 
449.500000	424.707334 
450.000000	423.688245 
450.500000	422.658793 
451.000000	421.426589 
451.500000	420.062722 
452.000000	418.651029 
452.500000	417.213714 
453.000000	415.789610 
453.500000	414.448202 
454.000000	413.027082 
454.500000	411.556688 
455.000000	409.979238 
455.500000	408.298963 
456.000000	406.552895 
456.500000	404.810389 
457.000000	403.050026 
457.500000	401.276941 
458.000000	399.437958 
458.500000	397.479788 
459.000000	395.440008 
459.500000	393.453546 
460.000000	391.588483 
460.500000	389.818592 
461.000000	388.098470 
461.500000	386.351213 
462.000000	384.514722 
462.500000	382.674520 
463.000000	380.991005 
463.500000	379.506185 
464.000000	378.234052 
464.500000	377.124767 
465.000000	376.112850 
465.500000	375.021658 
466.000000	373.830813 
466.500000	372.593712 
467.000000	371.347008 
467.500000	370.183097 
468.000000	369.222154 
468.500000	368.338023 
469.000000	367.566470 
469.500000	366.918754 
470.000000	366.313355 
470.500000	365.746637 
471.000000	365.210041 
471.500000	364.536638 
472.000000	363.742629 
472.500000	362.910156 
473.000000	362.096887 
473.500000	361.400015 
474.000000	360.828986 
474.500000	360.207231 
475.000000	359.458712 
475.500000	358.632762 
476.000000	357.824181 
476.500000	357.020878 
477.000000	356.269529 
477.500000	355.527877 
478.000000	354.708786 
478.500000	353.799384 
479.000000	352.938702 
479.500000	352.044259 
480.000000	351.103330 
480.500000	350.108244 
481.000000	349.026854 
481.500000	347.869131 
482.000000	346.822661 
482.500000	345.842287 
483.000000	344.880472 
483.500000	343.883343 
484.000000	342.767737 
484.500000	341.468806 
485.000000	340.091291 
485.500000	338.724142 
486.000000	337.420577 
486.500000	336.177199 
487.000000	334.966064 
487.500000	333.704329 
488.000000	332.292764 
488.500000	330.714288 
489.000000	329.047435 
489.500000	327.267403 
490.000000	325.431170 
490.500000	323.574937 
491.000000	321.709917 
491.500000	319.853859 
492.000000	318.038037 
492.500000	316.173009 
493.000000	314.262704 
493.500000	312.297372 
494.000000	310.327090 
494.500000	308.364140 
495.000000	306.411244 
495.500000	304.392774 
496.000000	302.307414 
496.500000	300.122278 
497.000000	297.904638 
497.500000	295.731668 
498.000000	293.599564 
498.500000	291.480813 
499.000000	289.306764 
499.500000	287.066301 
500.000000	284.786693 
500.500000	282.540057 
501.000000	280.299463 
501.500000	278.066172 
502.000000	275.839253 
502.500000	273.652079 
503.000000	271.483200 
503.500000	269.354589 
504.000000	267.146682 
504.500000	264.802838 
505.000000	262.338707 
505.500000	259.851001 
506.000000	257.379673 
506.500000	255.020903 
507.000000	252.712535 
507.500000	250.364171 
508.000000	247.979287 
508.500000	245.559474 
509.000000	243.109926 
509.500000	240.717401 
510.000000	238.353998 
510.500000	235.923541 
511.000000	233.474401 
511.500000	230.943620 
512.000000	228.226686 
512.500000	225.352454 
513.000000	222.341691 
513.500000	219.110390 
514.000000	215.816072 
514.500000	212.572843 
515.000000	209.393542 
515.500000	206.295828 
516.000000	203.280682 
516.500000	200.215470 
517.000000	197.060158 
517.500000	193.843542 
518.000000	190.593375 
518.500000	187.348603 
519.000000	184.126334 
519.500000	180.919705 
520.000000	177.665560 
520.500000	174.341422 
521.000000	170.971094 
521.500000	167.583471 
522.000000	164.154315 
522.500000	160.729698 
523.000000	157.324297 
523.500000	153.958472 
524.000000	150.640248 
524.500000	147.415792 
525.000000	144.251338 
525.500000	141.147068 
526.000000	138.054914 
526.500000	134.943728 
527.000000	131.794235 
527.500000	128.631972 
528.000000	125.440938 
528.500000	122.292011 
529.000000	119.212205 
529.500000	116.244686 
530.000000	113.397743 
530.500000	110.664006 
531.000000	107.980829 
531.500000	105.342497 
532.000000	102.759174 
532.500000	100.241398 
533.000000	97.798044  
533.500000	95.429743  
534.000000	93.103372  
534.500000	90.786808  
535.000000	88.511482  
535.500000	86.297337  
536.000000	84.137278  
536.500000	82.054252  
537.000000	80.045997  
537.500000	78.068972  
538.000000	76.154087  
538.500000	74.324079  
539.000000	72.534942  
539.500000	70.792781  
540.000000	69.100864  
540.500000	67.430073  
541.000000	65.816435  
541.500000	64.298810  
542.000000	62.845845  
542.500000	61.428251  
543.000000	60.033205  
543.500000	58.616474  
544.000000	57.200697  
544.500000	55.833015  
545.000000	54.516842  
545.500000	53.254224  
546.000000	52.056284  
546.500000	50.891262  
547.000000	49.749744  
547.500000	48.662121  
548.000000	47.606542  
548.500000	46.571177  
549.000000	45.570813  
549.500000	44.597831  
550.000000	43.625859  
550.500000	42.689165  
551.000000	41.758623  
551.500000	40.825769  
552.000000	39.921979  
552.500000	39.065525  
553.000000	38.238892  
553.500000	37.458313  
554.000000	36.705502  
554.500000	35.952368  
555.000000	35.203145  
555.500000	34.457025  
556.000000	33.704323  
556.500000	32.971743  
557.000000	32.255315  
557.500000	31.566811  
558.000000	30.909068  
558.500000	30.282624  
559.000000	29.641854  
559.500000	28.986698  
560.000000	28.303051  
560.500000	27.618917  
561.000000	26.964288  
561.500000	26.372974  
562.000000	25.809506  
562.500000	25.283644  
563.000000	24.764761  
563.500000	24.250860  
564.000000	23.738866  
564.500000	23.258661  
565.000000	22.788765  
565.500000	22.329140  
566.000000	21.853963  
566.500000	21.368694  
567.000000	20.876602  
567.500000	20.394549  
568.000000	19.917058  
568.500000	19.465083  
569.000000	19.014924  
569.500000	18.587421  
570.000000	18.174228  
570.500000	17.782520  
571.000000	17.396790  
571.500000	17.032292  
572.000000	16.657963  
572.500000	16.284799  
573.000000	15.901232  
573.500000	15.525468  
574.000000	15.146255  
574.500000	14.783145  
575.000000	14.424252  
575.500000	14.082160  
576.000000	13.736313  
576.500000	13.404796  
577.000000	13.080997  
577.500000	12.771161  
578.000000	12.472435  
578.500000	12.190619  
579.000000	11.904647  
579.500000	11.621545  
580.000000	11.342334  
580.500000	11.059850  
581.000000	10.779139  
581.500000	10.510761  
582.000000	10.243140  
582.500000	9.990783   
583.000000	9.756104   
583.500000	9.533495   
584.000000	9.314313   
584.500000	9.089057   
585.000000	8.862729   
585.500000	8.639255   
586.000000	8.426350   
586.500000	8.230789   
587.000000	8.054432   
587.500000	7.883701   
588.000000	7.718959   
588.500000	7.554651   
589.000000	7.381171   
589.500000	7.203502   
590.000000	7.030690   
590.500000	6.854642   
591.000000	6.686776   
591.500000	6.529960   
592.000000	6.379500   
592.500000	6.230334   
593.000000	6.092754   
593.500000	5.962450   
594.000000	5.836145   
594.500000	5.714048   
595.000000	5.595513   
595.500000	5.468412   
596.000000	5.341997   
596.500000	5.214391   

