PE FL       SUBTECH     SPECTRUM    ASCII       PEDS        1.60        
  -1
MIX_LQ_4.TXT
18/01/15
16:43:16.00
18/01/16
10:23:17.00


600.000000
1









LS55
350.00
3.00
2.50
SCAN
1
20
100
100
0
60
0
1
0
1
7
ON
600 350 
1 0 0
#HDR
-1
-1
#GR
NM

0.00002384185791015625
0.0
400.000000
0.500000
401
8
474.216000
4.261000
#DATA
400.000000	134.171000 
400.500000	139.390000 
401.000000	143.928000 
401.500000	151.867000 
402.000000	157.963000 
402.500000	161.468000 
403.000000	167.682000 
403.500000	170.682000 
404.000000	181.847000 
404.500000	186.463000 
405.000000	189.792000 
405.500000	199.788000 
406.000000	206.069000 
406.500000	214.295000 
407.000000	219.296000 
407.500000	226.878000 
408.000000	236.892000 
408.500000	239.657000 
409.000000	246.663000 
409.500000	255.951000 
410.000000	259.927000 
410.500000	269.644000 
411.000000	274.772000 
411.500000	281.415000 
412.000000	290.977000 
412.500000	297.644000 
413.000000	305.364000 
413.500000	310.958000 
414.000000	318.536000 
414.500000	327.345000 
415.000000	331.452000 
415.500000	339.136000 
416.000000	343.953000 
416.500000	348.260000 
417.000000	355.498000 
417.500000	361.380000 
418.000000	368.798000 
418.500000	374.156000 
419.000000	380.219000 
419.500000	384.125000 
420.000000	391.355000 
420.500000	396.715000 
421.000000	402.582000 
421.500000	405.575000 
422.000000	409.539000 
422.500000	414.264000 
423.000000	419.519000 
423.500000	422.634000 
424.000000	422.757000 
424.500000	427.666000 
425.000000	426.278000 
425.500000	432.248000 
426.000000	434.170000 
426.500000	438.932000 
427.000000	440.615000 
427.500000	443.512000 
428.000000	450.187000 
428.500000	448.919000 
429.000000	449.640000 
429.500000	453.357000 
430.000000	456.901000 
430.500000	454.903000 
431.000000	454.901000 
431.500000	454.359000 
432.000000	457.532000 
432.500000	464.790000 
433.000000	456.748000 
433.500000	459.214000 
434.000000	463.823000 
434.500000	463.714000 
435.000000	466.694000 
435.500000	469.230000 
436.000000	469.610000 
436.500000	468.825000 
437.000000	468.446000 
437.500000	471.256000 
438.000000	471.136000 
438.500000	474.216000 
439.000000	472.909000 
439.500000	470.209000 
440.000000	472.994000 
440.500000	471.236000 
441.000000	468.439000 
441.500000	469.825000 
442.000000	465.561000 
442.500000	465.407000 
443.000000	465.089000 
443.500000	461.858000 
444.000000	463.991000 
444.500000	459.967000 
445.000000	460.664000 
445.500000	459.954000 
446.000000	452.959000 
446.500000	454.229000 
447.000000	454.661000 
447.500000	450.091000 
448.000000	447.462000 
448.500000	446.050000 
449.000000	442.492000 
449.500000	443.690000 
450.000000	437.101000 
450.500000	438.773000 
451.000000	434.967000 
451.500000	437.199000 
452.000000	430.839000 
452.500000	427.963000 
453.000000	425.470000 
453.500000	420.416000 
454.000000	416.602000 
454.500000	415.745000 
455.000000	412.121000 
455.500000	413.268000 
456.000000	408.816000 
456.500000	409.472000 
457.000000	407.962000 
457.500000	398.397000 
458.000000	399.676000 
458.500000	393.457000 
459.000000	391.183000 
459.500000	390.978000 
460.000000	383.183000 
460.500000	381.372000 
461.000000	378.311000 
461.500000	375.122000 
462.000000	372.171000 
462.500000	371.532000 
463.000000	366.297000 
463.500000	365.923000 
464.000000	361.127000 
464.500000	359.263000 
465.000000	359.658000 
465.500000	357.196000 
466.000000	353.167000 
466.500000	350.182000 
467.000000	347.697000 
467.500000	346.709000 
468.000000	347.484000 
468.500000	343.164000 
469.000000	340.628000 
469.500000	339.594000 
470.000000	334.192000 
470.500000	336.367000 
471.000000	335.078000 
471.500000	329.223000 
472.000000	328.792000 
472.500000	332.092000 
473.000000	326.457000 
473.500000	324.124000 
474.000000	322.515000 
474.500000	321.003000 
475.000000	315.900000 
475.500000	312.240000 
476.000000	315.464000 
476.500000	314.704000 
477.000000	310.126000 
477.500000	313.620000 
478.000000	309.755000 
478.500000	306.531000 
479.000000	302.789000 
479.500000	302.981000 
480.000000	300.781000 
480.500000	301.988000 
481.000000	298.436000 
481.500000	296.483000 
482.000000	296.972000 
482.500000	291.776000 
483.000000	292.252000 
483.500000	290.574000 
484.000000	290.854000 
484.500000	286.599000 
485.000000	286.128000 
485.500000	288.617000 
486.000000	283.118000 
486.500000	280.052000 
487.000000	276.742000 
487.500000	274.261000 
488.000000	275.155000 
488.500000	274.024000 
489.000000	271.819000 
489.500000	270.022000 
490.000000	266.031000 
490.500000	264.683000 
491.000000	262.199000 
491.500000	262.907000 
492.000000	258.276000 
492.500000	254.190000 
493.000000	254.110000 
493.500000	251.223000 
494.000000	253.168000 
494.500000	251.001000 
495.000000	246.455000 
495.500000	245.548000 
496.000000	243.254000 
496.500000	242.434000 
497.000000	236.486000 
497.500000	239.001000 
498.000000	238.058000 
498.500000	236.313000 
499.000000	230.131000 
499.500000	229.182000 
500.000000	225.962000 
500.500000	224.615000 
501.000000	225.626000 
501.500000	222.083000 
502.000000	220.468000 
502.500000	220.387000 
503.000000	216.119000 
503.500000	217.124000 
504.000000	215.874000 
504.500000	212.353000 
505.000000	207.867000 
505.500000	207.275000 
506.000000	204.365000 
506.500000	203.817000 
507.000000	200.493000 
507.500000	199.988000 
508.000000	196.922000 
508.500000	195.027000 
509.000000	195.707000 
509.500000	192.855000 
510.000000	187.502000 
510.500000	186.389000 
511.000000	186.907000 
511.500000	185.028000 
512.000000	182.127000 
512.500000	179.956000 
513.000000	176.206000 
513.500000	174.823000 
514.000000	170.432000 
514.500000	168.509000 
515.000000	166.390000 
515.500000	164.609000 
516.000000	158.297000 
516.500000	159.019000 
517.000000	156.355000 
517.500000	152.740000 
518.000000	150.674000 
518.500000	149.949000 
519.000000	145.965000 
519.500000	143.300000 
520.000000	138.374000 
520.500000	139.804000 
521.000000	134.621000 
521.500000	131.072000 
522.000000	128.393000 
522.500000	127.719000 
523.000000	121.761000 
523.500000	121.406000 
524.000000	117.694000 
524.500000	116.694000 
525.000000	113.384000 
525.500000	112.686000 
526.000000	108.192000 
526.500000	108.695000 
527.000000	104.074000 
527.500000	102.632000 
528.000000	100.044000 
528.500000	97.143000  
529.000000	94.381000  
529.500000	92.905000  
530.000000	89.587000  
530.500000	87.361999  
531.000000	85.099000  
531.500000	85.883000  
532.000000	82.328000  
532.500000	79.797000  
533.000000	77.315000  
533.500000	77.185000  
534.000000	74.239000  
534.500000	72.971999  
535.000000	71.623000  
535.500000	69.054000  
536.000000	68.116000  
536.500000	66.846000  
537.000000	64.178000  
537.500000	61.269000  
538.000000	61.172000  
538.500000	59.420000  
539.000000	57.943000  
539.500000	57.012000  
540.000000	55.697000  
540.500000	54.086000  
541.000000	52.356000  
541.500000	49.983000  
542.000000	50.554000  
542.500000	49.705000  
543.000000	48.653000  
543.500000	48.169000  
544.000000	47.255000  
544.500000	45.808000  
545.000000	44.278000  
545.500000	43.968000  
546.000000	42.156000  
546.500000	41.358000  
547.000000	40.648000  
547.500000	39.508000  
548.000000	39.017000  
548.500000	38.332000  
549.000000	38.787000  
549.500000	35.841000  
550.000000	35.453000  
550.500000	34.704000  
551.000000	34.548000  
551.500000	33.379000  
552.000000	31.973000  
552.500000	31.710000  
553.000000	31.434000  
553.500000	30.275000  
554.000000	30.048000  
554.500000	28.335000  
555.000000	28.180000  
555.500000	27.999000  
556.000000	27.662000  
556.500000	27.663000  
557.000000	27.002000  
557.500000	25.472000  
558.000000	25.455000  
558.500000	24.897000  
559.000000	24.049000  
559.500000	23.905000  
560.000000	24.309000  
560.500000	22.585000  
561.000000	22.857000  
561.500000	22.264000  
562.000000	22.301000  
562.500000	20.612000  
563.000000	20.011000  
563.500000	20.013000  
564.000000	20.353000  
564.500000	20.011000  
565.000000	19.071000  
565.500000	19.424000  
566.000000	17.534000  
566.500000	17.890000  
567.000000	17.200000  
567.500000	17.470000  
568.000000	16.845000  
568.500000	16.633000  
569.000000	15.785000  
569.500000	15.320000  
570.000000	15.637000  
570.500000	15.974000  
571.000000	14.978000  
571.500000	14.429000  
572.000000	13.199000  
572.500000	13.433000  
573.000000	13.979000  
573.500000	13.317000  
574.000000	12.259000  
574.500000	12.747000  
575.000000	12.062000  
575.500000	11.839000  
576.000000	11.673000  
576.500000	11.426000  
577.000000	11.369000  
577.500000	11.230000  
578.000000	10.982000  
578.500000	10.296000  
579.000000	10.019000  
579.500000	9.638000   
580.000000	9.952000   
580.500000	9.472000   
581.000000	9.487000   
581.500000	9.058000   
582.000000	9.095000   
582.500000	8.407999   
583.000000	8.414999   
583.500000	8.369000   
584.000000	8.129000   
584.500000	7.817000   
585.000000	7.870000   
585.500000	8.347000   
586.000000	7.617000   
586.500000	7.851000   
587.000000	7.280000   
587.500000	6.987000   
588.000000	7.313000   
588.500000	7.293000   
589.000000	6.795000   
589.500000	6.101000   
590.000000	6.665000   
590.500000	6.738000   
591.000000	5.934000   
591.500000	6.089000   
592.000000	5.808000   
592.500000	5.759000   
593.000000	5.886000   
593.500000	6.263000   
594.000000	5.584000   
594.500000	5.248000   
595.000000	5.461000   
595.500000	5.516000   
596.000000	4.883000   
596.500000	4.831000   
597.000000	5.023000   
597.500000	4.748000   
598.000000	4.614000   
598.500000	4.670000   
599.000000	4.555000   
599.500000	4.671000   
600.000000	4.261000   

