PE FL                   SPECTRUM    ASCII       PEDS        1.60        
  -1
MIA2D2~1.TXT
18/01/15
16:35:47.00
18/01/15
16:35:47.00


598.500000
1









LS55
350.00
3.00
2.50
SCAN
1
20
100
100
0
60
0
1
0
1
7
ON
600 350 
1 0 0
#HDR
-1
-1
#GR
NM

0.00002384185791015625
0.0
400.000000
0.500000
398
8
565.860000
4.200000
#DATA
400.000000	154.072000 
400.500000	168.404000 
401.000000	174.789000 
401.500000	183.457000 
402.000000	190.405000 
402.500000	198.110000 
403.000000	204.842000 
403.500000	208.525000 
404.000000	219.297000 
404.500000	228.155000 
405.000000	239.725000 
405.500000	244.247000 
406.000000	251.317000 
406.500000	259.414000 
407.000000	273.506000 
407.500000	281.093000 
408.000000	288.416000 
408.500000	302.077000 
409.000000	306.775000 
409.500000	316.993000 
410.000000	320.547000 
410.500000	333.373000 
411.000000	338.894000 
411.500000	353.164000 
412.000000	361.600000 
412.500000	367.128000 
413.000000	377.500000 
413.500000	389.535000 
414.000000	395.874000 
414.500000	406.594000 
415.000000	412.785000 
415.500000	419.497000 
416.000000	429.683000 
416.500000	435.776000 
417.000000	441.950000 
417.500000	450.059000 
418.000000	456.751000 
418.500000	465.738000 
419.000000	471.178000 
419.500000	479.438000 
420.000000	480.580000 
420.500000	486.034000 
421.000000	493.551000 
421.500000	495.943000 
422.000000	504.088000 
422.500000	516.478000 
423.000000	516.714000 
423.500000	527.881000 
424.000000	528.102000 
424.500000	527.231000 
425.000000	528.455000 
425.500000	535.707000 
426.000000	534.434000 
426.500000	537.764000 
427.000000	542.038000 
427.500000	545.271000 
428.000000	548.467000 
428.500000	547.379000 
429.000000	550.822000 
429.500000	549.910999 
430.000000	551.488000 
430.500000	557.297000 
431.000000	556.559999 
431.500000	556.674000 
432.000000	558.667000 
432.500000	564.404000 
433.000000	563.724000 
433.500000	563.923000 
434.000000	562.234000 
434.500000	564.391000 
435.000000	564.174000 
435.500000	565.860000 
436.000000	559.328000 
436.500000	557.586000 
437.000000	564.728000 
437.500000	564.131000 
438.000000	561.739000 
438.500000	560.069000 
439.000000	558.139000 
439.500000	560.009000 
440.000000	561.729000 
440.500000	555.854000 
441.000000	556.232999 
441.500000	559.400000 
442.000000	553.544000 
442.500000	547.220000 
443.000000	550.439000 
443.500000	544.585000 
444.000000	538.277000 
444.500000	537.790000 
445.000000	533.109000 
445.500000	531.991000 
446.000000	529.317000 
446.500000	522.748000 
447.000000	522.881999 
447.500000	520.981000 
448.000000	518.918000 
448.500000	516.635000 
449.000000	509.957000 
449.500000	507.646000 
450.000000	503.775000 
450.500000	498.423000 
451.000000	496.348000 
451.500000	492.630000 
452.000000	486.145000 
452.500000	482.338000 
453.000000	479.036000 
453.500000	477.391000 
454.000000	470.249000 
454.500000	469.922000 
455.000000	467.277000 
455.500000	464.968000 
456.000000	461.845000 
456.500000	455.059000 
457.000000	451.501000 
457.500000	444.961000 
458.000000	438.955000 
458.500000	439.151000 
459.000000	434.134000 
459.500000	425.221000 
460.000000	422.386000 
460.500000	425.150000 
461.000000	419.206000 
461.500000	411.429000 
462.000000	406.247000 
462.500000	403.368000 
463.000000	400.669000 
463.500000	395.536000 
464.000000	392.363000 
464.500000	390.328000 
465.000000	384.251000 
465.500000	382.726000 
466.000000	381.452000 
466.500000	372.262000 
467.000000	370.060000 
467.500000	365.963000 
468.000000	364.643000 
468.500000	363.628000 
469.000000	362.845000 
469.500000	358.530000 
470.000000	351.061000 
470.500000	347.268000 
471.000000	348.431000 
471.500000	346.555000 
472.000000	343.237000 
472.500000	335.347000 
473.000000	333.690000 
473.500000	334.241000 
474.000000	331.069000 
474.500000	329.320000 
475.000000	326.498000 
475.500000	323.171000 
476.000000	318.552000 
476.500000	318.178000 
477.000000	318.112000 
477.500000	312.677000 
478.000000	314.811000 
478.500000	310.137000 
479.000000	305.250000 
479.500000	305.216000 
480.000000	301.469000 
480.500000	300.496000 
481.000000	298.474000 
481.500000	296.095000 
482.000000	293.145000 
482.500000	292.292000 
483.000000	290.385000 
483.500000	286.707000 
484.000000	282.591000 
484.500000	283.148000 
485.000000	282.160000 
485.500000	277.529000 
486.000000	274.198000 
486.500000	271.425000 
487.000000	274.453000 
487.500000	271.788000 
488.000000	269.723000 
488.500000	264.706000 
489.000000	263.472000 
489.500000	263.341000 
490.000000	260.094000 
490.500000	257.722000 
491.000000	253.760000 
491.500000	251.513000 
492.000000	251.757000 
492.500000	248.360000 
493.000000	242.603000 
493.500000	243.229000 
494.000000	244.689000 
494.500000	241.510000 
495.000000	237.754000 
495.500000	235.382000 
496.000000	237.681000 
496.500000	232.921000 
497.000000	228.613000 
497.500000	228.856000 
498.000000	227.124000 
498.500000	225.784000 
499.000000	223.380000 
499.500000	220.751000 
500.000000	216.287000 
500.500000	214.308000 
501.000000	214.622000 
501.500000	213.633000 
502.000000	213.577000 
502.500000	205.835000 
503.000000	204.160000 
503.500000	202.532000 
504.000000	202.884000 
504.500000	202.218000 
505.000000	197.574000 
505.500000	196.033000 
506.000000	194.187000 
506.500000	192.099000 
507.000000	190.526000 
507.500000	187.020000 
508.000000	189.024000 
508.500000	185.067000 
509.000000	182.168000 
509.500000	180.485000 
510.000000	178.178000 
510.500000	175.844000 
511.000000	173.395000 
511.500000	169.655000 
512.000000	168.540000 
512.500000	167.791000 
513.000000	165.913000 
513.500000	163.789000 
514.000000	161.470000 
514.500000	160.010000 
515.000000	155.364000 
515.500000	153.370000 
516.000000	150.042000 
516.500000	147.165000 
517.000000	144.243000 
517.500000	142.209000 
518.000000	138.820000 
518.500000	139.387000 
519.000000	136.550000 
519.500000	131.295000 
520.000000	128.548000 
520.500000	126.675000 
521.000000	123.991000 
521.500000	123.607000 
522.000000	121.730000 
522.500000	117.245000 
523.000000	112.003000 
523.500000	112.059000 
524.000000	108.979000 
524.500000	107.365000 
525.000000	106.732000 
525.500000	104.324000 
526.000000	100.382000 
526.500000	98.727000  
527.000000	96.919000  
527.500000	94.393000  
528.000000	93.025000  
528.500000	89.553000  
529.000000	86.349000  
529.500000	85.625000  
530.000000	83.664000  
530.500000	81.394000  
531.000000	80.021000  
531.500000	76.163000  
532.000000	75.965999  
532.500000	73.131000  
533.000000	74.184000  
533.500000	70.556000  
534.000000	69.102999  
534.500000	68.173000  
535.000000	65.901000  
535.500000	64.531000  
536.000000	62.075000  
536.500000	60.210000  
537.000000	59.762000  
537.500000	58.196000  
538.000000	56.690000  
538.500000	54.174000  
539.000000	52.856000  
539.500000	52.663000  
540.000000	52.524000  
540.500000	50.042000  
541.000000	48.834000  
541.500000	48.174000  
542.000000	46.517000  
542.500000	46.006000  
543.000000	44.329000  
543.500000	43.915000  
544.000000	42.606000  
544.500000	41.115000  
545.000000	40.329000  
545.500000	40.131000  
546.000000	39.184000  
546.500000	37.915000  
547.000000	36.820000  
547.500000	36.666000  
548.000000	36.866000  
548.500000	36.125000  
549.000000	34.757000  
549.500000	33.607000  
550.000000	32.793000  
550.500000	33.654000  
551.000000	31.704000  
551.500000	30.700000  
552.000000	28.890000  
552.500000	29.462000  
553.000000	28.874000  
553.500000	28.158000  
554.000000	27.978000  
554.500000	27.271000  
555.000000	25.585000  
555.500000	26.041000  
556.000000	24.543000  
556.500000	24.512000  
557.000000	24.721000  
557.500000	24.687000  
558.000000	23.704000  
558.500000	24.051000  
559.000000	23.465000  
559.500000	22.600000  
560.000000	22.201000  
560.500000	20.721000  
561.000000	20.440000  
561.500000	20.365000  
562.000000	20.199000  
562.500000	20.055000  
563.000000	18.620000  
563.500000	18.493000  
564.000000	18.096000  
564.500000	17.755000  
565.000000	18.113000  
565.500000	16.931000  
566.000000	17.018000  
566.500000	16.527000  
567.000000	16.112000  
567.500000	16.010000  
568.000000	15.209000  
568.500000	15.161000  
569.000000	14.618000  
569.500000	14.546000  
570.000000	14.683000  
570.500000	14.210000  
571.000000	13.844000  
571.500000	14.360000  
572.000000	13.131000  
572.500000	12.910000  
573.000000	12.276000  
573.500000	12.125000  
574.000000	12.145000  
574.500000	11.277000  
575.000000	12.169000  
575.500000	11.918000  
576.000000	11.044000  
576.500000	10.485000  
577.000000	10.562000  
577.500000	9.685000   
578.000000	10.067000  
578.500000	9.961000   
579.000000	9.393000   
579.500000	9.816000   
580.000000	8.971000   
580.500000	9.227000   
581.000000	8.407999   
581.500000	8.512000   
582.000000	8.369000   
582.500000	8.471000   
583.000000	8.419000   
583.500000	7.819000   
584.000000	7.832000   
584.500000	7.691000   
585.000000	7.573000   
585.500000	7.538000   
586.000000	7.494000   
586.500000	7.451000   
587.000000	6.913000   
587.500000	6.708000   
588.000000	6.663000   
588.500000	6.560000   
589.000000	6.114000   
589.500000	5.767000   
590.000000	6.061000   
590.500000	6.402000   
591.000000	5.790000   
591.500000	5.483000   
592.000000	5.892000   
592.500000	5.868000   
593.000000	4.993000   
593.500000	4.861000   
594.000000	5.259000   
594.500000	5.164000   
595.000000	5.391000   
595.500000	4.835000   
596.000000	5.007000   
596.500000	4.826000   
597.000000	4.345000   
597.500000	4.200000   
598.000000	4.854000   
598.500000	4.753000   

