PE FL                   SPECTRUM    ASCII       PEDS        1.60        
  -1
MIA2C0~1.TXT
18/01/15
15:35:46.00
18/01/15
15:35:46.00


598.500000
1









LS55
350.00
3.00
2.50
SCAN
1
20
100
100
0
60
0
1
0
1
7
ON
600 350 
1 0 0
#HDR
-1
-1
#GR
NM

0.00002384185791015625
0.0
400.000000
0.500000
398
8
734.544000
4.394000
#DATA
400.000000	206.501000 
400.500000	217.634000 
401.000000	229.215000 
401.500000	238.412000 
402.000000	246.734000 
402.500000	258.450000 
403.000000	270.578000 
403.500000	279.077000 
404.000000	286.572000 
404.500000	300.973000 
405.000000	313.140000 
405.500000	325.255000 
406.000000	337.850000 
406.500000	350.389000 
407.000000	364.166000 
407.500000	369.150000 
408.000000	380.383000 
408.500000	395.030000 
409.000000	404.947000 
409.500000	416.608000 
410.000000	432.412000 
410.500000	441.044000 
411.000000	451.042000 
411.500000	466.366000 
412.000000	481.802000 
412.500000	491.803000 
413.000000	503.354000 
413.500000	514.273000 
414.000000	529.120000 
414.500000	542.415000 
415.000000	549.817000 
415.500000	559.592000 
416.000000	575.532000 
416.500000	588.139000 
417.000000	596.038000 
417.500000	603.171000 
418.000000	611.565000 
418.500000	623.558000 
419.000000	631.558000 
419.500000	641.040000 
420.000000	646.509000 
420.500000	657.163000 
421.000000	661.817000 
421.500000	671.408000 
422.000000	678.822000 
422.500000	682.256000 
423.000000	692.355000 
423.500000	693.562000 
424.000000	696.879000 
424.500000	699.345000 
425.000000	705.905999 
425.500000	707.777000 
426.000000	711.408000 
426.500000	718.070000 
427.000000	717.158000 
427.500000	716.756000 
428.000000	720.057000 
428.500000	723.409000 
429.000000	721.912000 
429.500000	725.528000 
430.000000	728.349000 
430.500000	732.913000 
431.000000	727.111000 
431.500000	730.708999 
432.000000	728.787000 
432.500000	734.544000 
433.000000	730.808000 
433.500000	732.166000 
434.000000	731.533000 
434.500000	725.379000 
435.000000	728.125000 
435.500000	727.244000 
436.000000	725.524000 
436.500000	725.703000 
437.000000	725.532000 
437.500000	722.026000 
438.000000	722.817000 
438.500000	718.529000 
439.000000	715.764000 
439.500000	713.924000 
440.000000	707.302000 
440.500000	707.913000 
441.000000	701.587000 
441.500000	699.391000 
442.000000	695.402000 
442.500000	693.183000 
443.000000	688.521000 
443.500000	683.847000 
444.000000	678.880000 
444.500000	674.294000 
445.000000	673.543000 
445.500000	663.475000 
446.000000	659.848000 
446.500000	655.338000 
447.000000	642.511000 
447.500000	639.987000 
448.000000	635.135000 
448.500000	629.640000 
449.000000	623.949000 
449.500000	620.068000 
450.000000	611.828000 
450.500000	605.807000 
451.000000	597.243000 
451.500000	594.666000 
452.000000	592.028000 
452.500000	581.511000 
453.000000	571.211000 
453.500000	571.501000 
454.000000	564.309999 
454.500000	561.923000 
455.000000	555.256000 
455.500000	549.412000 
456.000000	537.118000 
456.500000	530.500000 
457.000000	526.804000 
457.500000	520.835000 
458.000000	517.204000 
458.500000	508.363000 
459.000000	501.345000 
459.500000	494.614000 
460.000000	487.413000 
460.500000	477.821000 
461.000000	479.227000 
461.500000	465.522000 
462.000000	460.582000 
462.500000	456.916000 
463.000000	450.312000 
463.500000	450.028000 
464.000000	443.294000 
464.500000	436.013000 
465.000000	432.052000 
465.500000	427.911000 
466.000000	416.597000 
466.500000	412.347000 
467.000000	408.742000 
467.500000	398.506000 
468.000000	401.160000 
468.500000	396.095000 
469.000000	390.173000 
469.500000	386.149000 
470.000000	383.036000 
470.500000	375.550000 
471.000000	374.357000 
471.500000	369.453000 
472.000000	364.713000 
472.500000	361.341000 
473.000000	354.557000 
473.500000	351.932000 
474.000000	348.363000 
474.500000	347.689000 
475.000000	340.204000 
475.500000	336.085000 
476.000000	331.074000 
476.500000	326.204000 
477.000000	324.413000 
477.500000	322.567000 
478.000000	323.613000 
478.500000	316.528000 
479.000000	311.174000 
479.500000	309.216000 
480.000000	308.325000 
480.500000	306.250000 
481.000000	303.091000 
481.500000	301.374000 
482.000000	297.599000 
482.500000	289.791000 
483.000000	287.082000 
483.500000	284.878000 
484.000000	281.593000 
484.500000	279.603000 
485.000000	276.159000 
485.500000	274.105000 
486.000000	272.819000 
486.500000	268.967000 
487.000000	266.780000 
487.500000	262.619000 
488.000000	261.536000 
488.500000	258.581000 
489.000000	258.054000 
489.500000	252.708000 
490.000000	249.974000 
490.500000	247.110000 
491.000000	242.839000 
491.500000	239.187000 
492.000000	239.206000 
492.500000	239.169000 
493.000000	234.528000 
493.500000	233.077000 
494.000000	229.121000 
494.500000	227.667000 
495.000000	222.046000 
495.500000	221.777000 
496.000000	218.292000 
496.500000	213.752000 
497.000000	215.116000 
497.500000	213.341000 
498.000000	211.453000 
498.500000	209.595000 
499.000000	203.501000 
499.500000	202.293000 
500.000000	200.600000 
500.500000	198.077000 
501.000000	196.316000 
501.500000	192.810000 
502.000000	191.008000 
502.500000	193.170000 
503.000000	186.620000 
503.500000	182.696000 
504.000000	184.352000 
504.500000	183.318000 
505.000000	180.024000 
505.500000	178.203000 
506.000000	176.044000 
506.500000	173.874000 
507.000000	170.958000 
507.500000	172.054000 
508.000000	168.763000 
508.500000	164.272000 
509.000000	165.591000 
509.500000	161.276000 
510.000000	157.285000 
510.500000	156.754000 
511.000000	157.316000 
511.500000	152.255000 
512.000000	149.637000 
512.500000	149.644000 
513.000000	144.155000 
513.500000	141.979000 
514.000000	141.072000 
514.500000	139.934000 
515.000000	137.983000 
515.500000	133.742000 
516.000000	129.885000 
516.500000	128.035000 
517.000000	125.953000 
517.500000	126.039000 
518.000000	122.155000 
518.500000	120.514000 
519.000000	119.645000 
519.500000	115.592000 
520.000000	113.964000 
520.500000	112.140000 
521.000000	109.760000 
521.500000	107.148000 
522.000000	103.604000 
522.500000	101.395000 
523.000000	98.827000  
523.500000	97.965999  
524.000000	94.236999  
524.500000	93.269000  
525.000000	90.601000  
525.500000	88.072999  
526.000000	87.165000  
526.500000	85.683000  
527.000000	82.915000  
527.500000	82.066000  
528.000000	79.666000  
528.500000	77.545000  
529.000000	77.620000  
529.500000	73.932000  
530.000000	73.141000  
530.500000	69.604000  
531.000000	66.178000  
531.500000	65.398000  
532.000000	64.827000  
532.500000	63.312000  
533.000000	61.557000  
533.500000	61.405000  
534.000000	59.444000  
534.500000	56.902000  
535.000000	54.664000  
535.500000	53.950000  
536.000000	52.319000  
536.500000	50.281000  
537.000000	50.207000  
537.500000	49.377000  
538.000000	47.527000  
538.500000	46.932000  
539.000000	45.460000  
539.500000	44.872000  
540.000000	44.059000  
540.500000	41.213000  
541.000000	40.731000  
541.500000	40.849000  
542.000000	40.153000  
542.500000	39.690000  
543.000000	38.784000  
543.500000	37.114000  
544.000000	35.660000  
544.500000	36.001000  
545.000000	34.811000  
545.500000	33.412000  
546.000000	33.469000  
546.500000	33.333000  
547.000000	32.576000  
547.500000	31.379000  
548.000000	30.201000  
548.500000	29.946000  
549.000000	29.665000  
549.500000	28.928000  
550.000000	27.994000  
550.500000	27.837000  
551.000000	27.525000  
551.500000	26.847000  
552.000000	26.376000  
552.500000	25.434000  
553.000000	24.072000  
553.500000	25.204000  
554.000000	23.756000  
554.500000	22.275000  
555.000000	23.047000  
555.500000	22.683000  
556.000000	21.747000  
556.500000	21.580000  
557.000000	21.310000  
557.500000	20.863000  
558.000000	20.822000  
558.500000	20.785000  
559.000000	19.036000  
559.500000	18.070000  
560.000000	19.063000  
560.500000	18.577000  
561.000000	17.863000  
561.500000	17.417000  
562.000000	16.236000  
562.500000	17.361000  
563.000000	16.970000  
563.500000	16.277000  
564.000000	16.155000  
564.500000	15.442000  
565.000000	14.905000  
565.500000	15.272000  
566.000000	14.903000  
566.500000	14.254000  
567.000000	13.989000  
567.500000	13.238000  
568.000000	12.762000  
568.500000	13.304000  
569.000000	12.779000  
569.500000	12.101000  
570.000000	12.770000  
570.500000	11.830000  
571.000000	12.408000  
571.500000	11.660000  
572.000000	11.004000  
572.500000	10.792000  
573.000000	11.467000  
573.500000	11.377000  
574.000000	10.842000  
574.500000	10.158000  
575.000000	10.368000  
575.500000	9.914000   
576.000000	9.922000   
576.500000	9.691000   
577.000000	9.670999   
577.500000	9.194000   
578.000000	8.750000   
578.500000	8.429000   
579.000000	8.319000   
579.500000	8.613000   
580.000000	8.071999   
580.500000	7.922000   
581.000000	7.940000   
581.500000	8.012000   
582.000000	7.902000   
582.500000	7.635000   
583.000000	7.235000   
583.500000	7.489000   
584.000000	7.293000   
584.500000	6.684000   
585.000000	7.292000   
585.500000	6.819000   
586.000000	6.668000   
586.500000	6.613000   
587.000000	6.544000   
587.500000	6.463000   
588.000000	6.197000   
588.500000	5.698000   
589.000000	5.384000   
589.500000	5.181000   
590.000000	5.615000   
590.500000	5.850000   
591.000000	5.505000   
591.500000	5.323000   
592.000000	5.441000   
592.500000	5.345000   
593.000000	5.209000   
593.500000	5.676000   
594.000000	5.111000   
594.500000	4.819000   
595.000000	4.755000   
595.500000	4.571000   
596.000000	4.394000   
596.500000	4.654000   
597.000000	4.765000   
597.500000	4.694000   
598.000000	4.782000   
598.500000	4.574000   

