PE FL                   SPECTRUM    ASCII       PEDS        1.60        
  -1
SM6326~1.TXT
19/02/08
10:09:26.00
19/02/08
10:09:26.00


648.500000
1









LS55
460.00
5.00
2.50
SCAN
1
20
100
100
0
40
0
1
0
1
7
ON
515 334 
1 2 0
#HDR
-1
-1
#GR
NM

0.00002384185791015625
0.0
470.000000
0.500000
358
8
36.299933
0.250000
#DATA
470.000000	0.250000  
470.500000	0.395466  
471.000000	0.434733  
471.500000	0.425400  
472.000000	0.443600  
472.500000	0.481466  
473.000000	0.512266  
473.500000	0.525266  
474.000000	0.556200  
474.500000	0.604066  
475.000000	0.625866  
475.500000	0.636666  
476.000000	0.682266  
476.500000	0.745200  
477.000000	0.809266  
477.500000	0.863933  
478.000000	0.891266  
478.500000	0.933666  
479.000000	1.032933  
479.500000	1.141400  
480.000000	1.213200  
480.500000	1.277400  
481.000000	1.373400  
481.500000	1.476266  
482.000000	1.558666  
482.500000	1.672800  
483.000000	1.846066  
483.500000	2.028866  
484.000000	2.163533  
484.500000	2.301533  
485.000000	2.479533  
485.500000	2.633533  
486.000000	2.813733  
486.500000	3.070933  
487.000000	3.271466  
487.500000	3.406066  
488.000000	3.598533  
488.500000	3.799933  
489.000000	4.098066  
489.500000	4.515133  
490.000000	4.875333  
490.500000	5.227733  
491.000000	5.588600  
491.500000	5.928000  
492.000000	6.286266  
492.500000	6.542933  
493.000000	6.759333  
493.500000	7.237466  
494.000000	7.814866  
494.500000	8.237066  
495.000000	8.575733  
495.500000	8.920466  
496.000000	9.436600  
496.500000	10.167133 
497.000000	10.691466 
497.500000	11.101200 
498.000000	11.749800 
498.500000	12.353800 
499.000000	12.810066 
499.500000	13.235200 
500.000000	13.848933 
500.500000	14.671133 
501.000000	15.292266 
501.500000	15.758200 
502.000000	16.235066 
502.500000	16.714266 
503.000000	17.241533 
503.500000	17.761533 
504.000000	18.372066 
504.500000	18.971600 
505.000000	19.408466 
505.500000	19.815000 
506.000000	20.141000 
506.500000	20.636466 
507.000000	21.317800 
507.500000	21.749933 
508.000000	21.837066 
508.500000	21.830200 
509.000000	21.996266 
509.500000	22.367200 
510.000000	22.565400 
510.500000	22.452466 
511.000000	22.260333 
511.500000	22.197266 
512.000000	22.205666 
512.500000	22.085000 
513.000000	21.894400 
513.500000	21.661000 
514.000000	21.260466 
514.500000	20.890666 
515.000000	20.614466 
515.500000	20.202066 
516.000000	19.762333 
516.500000	19.464666 
517.000000	19.227666 
517.500000	18.839733 
518.000000	18.241066 
518.500000	17.615266 
519.000000	17.099933 
519.500000	16.573333 
520.000000	16.005600 
520.500000	15.444533 
521.000000	14.947000 
521.500000	14.544200 
522.000000	14.167666 
522.500000	13.758533 
523.000000	13.261800 
523.500000	12.658266 
524.000000	12.139400 
524.500000	11.829000 
525.000000	11.497933 
525.500000	11.087333 
526.000000	10.784000 
526.500000	10.503800 
527.000000	10.186200 
527.500000	9.771933  
528.000000	9.387733  
528.500000	9.259666  
529.000000	9.097533  
529.500000	8.817333  
530.000000	8.573800  
530.500000	8.193333  
531.000000	7.948933  
531.500000	7.882933  
532.000000	7.745133  
532.500000	7.633599  
533.000000	7.502800  
533.500000	7.337600  
534.000000	7.284266  
534.500000	7.246200  
535.000000	7.061800  
535.500000	6.910600  
536.000000	6.985933  
536.500000	6.997666  
537.000000	6.786199  
537.500000	6.719399  
538.000000	6.750933  
538.500000	6.674133  
539.000000	6.448200  
539.500000	6.306933  
540.000000	6.435400  
540.500000	6.550000  
541.000000	6.424533  
541.500000	6.327933  
542.000000	6.250400  
542.500000	6.140200  
543.000000	6.089600  
543.500000	6.088333  
544.000000	6.035400  
544.500000	5.961866  
545.000000	5.944866  
545.500000	5.862933  
546.000000	5.607200  
546.500000	5.428866  
547.000000	5.317000  
547.500000	5.125333  
548.000000	4.956266  
548.500000	4.855933  
549.000000	4.761733  
549.500000	4.641333  
550.000000	4.486400  
550.500000	4.351933  
551.000000	4.191599  
551.500000	4.006933  
552.000000	3.850933  
552.500000	3.655066  
553.000000	3.399733  
553.500000	3.225066  
554.000000	3.129866  
554.500000	3.008866  
555.000000	2.861200  
555.500000	2.682400  
556.000000	2.493000  
556.500000	2.361200  
557.000000	2.285133  
557.500000	2.223933  
558.000000	2.142066  
558.500000	2.008933  
559.000000	1.842866  
559.500000	1.714266  
560.000000	1.625466  
560.500000	1.543266  
561.000000	1.475933  
561.500000	1.405466  
562.000000	1.327000  
562.500000	1.265600  
563.000000	1.215200  
563.500000	1.186400  
564.000000	1.156333  
564.500000	1.084933  
565.000000	1.053333  
565.500000	1.095200  
566.000000	1.099733  
566.500000	1.039666  
567.000000	0.985133  
567.500000	0.987800  
568.000000	1.005666  
568.500000	0.998733  
569.000000	0.977666  
569.500000	0.944133  
570.000000	0.952666  
570.500000	1.003666  
571.000000	1.007800  
571.500000	1.025333  
572.000000	1.061533  
572.500000	1.090200  
573.000000	1.116866  
573.500000	1.114000  
574.000000	1.132733  
574.500000	1.186266  
575.000000	1.223000  
575.500000	1.268200  
576.000000	1.353333  
576.500000	1.404000  
577.000000	1.360133  
577.500000	1.336266  
578.000000	1.432066  
578.500000	1.544866  
579.000000	1.593933  
579.500000	1.630466  
580.000000	1.739866  
580.500000	1.882000  
581.000000	1.962800  
581.500000	2.039800  
582.000000	2.209066  
582.500000	2.372333  
583.000000	2.492666  
583.500000	2.679866  
584.000000	2.928733  
584.500000	3.123266  
585.000000	3.262933  
585.500000	3.458000  
586.000000	3.763666  
586.500000	4.119800  
587.000000	4.476000  
587.500000	4.853800  
588.000000	5.254800  
588.500000	5.676933  
589.000000	6.173066  
589.500000	6.787066  
590.000000	7.511933  
590.500000	8.174333  
591.000000	8.833133  
591.500000	9.792800  
592.000000	10.875333 
592.500000	11.860400 
593.000000	12.780533 
593.500000	13.671933 
594.000000	14.761933 
594.500000	16.025866 
595.000000	17.327866 
595.500000	18.691000 
596.000000	19.936466 
596.500000	21.095866 
597.000000	22.397400 
597.500000	23.807466 
598.000000	25.234133 
598.500000	26.540066 
599.000000	27.793533 
599.500000	29.215800 
600.000000	30.362866 
600.500000	31.138800 
601.000000	32.012733 
601.500000	32.873400 
602.000000	33.543066 
602.500000	34.319866 
603.000000	35.067400 
603.500000	35.594533 
604.000000	35.906800 
604.500000	35.995266 
605.000000	36.049666 
605.500000	36.238933 
606.000000	36.299933 
606.500000	36.125600 
607.000000	35.840733 
607.500000	35.578266 
608.000000	35.374333 
608.500000	35.108933 
609.000000	34.578666 
609.500000	33.898800 
610.000000	33.327000 
610.500000	32.699866 
611.000000	31.986800 
611.500000	31.411133 
612.000000	30.939800 
612.500000	30.355933 
613.000000	29.481666 
613.500000	28.728333 
614.000000	28.305666 
614.500000	27.808066 
615.000000	26.954400 
615.500000	25.968733 
616.000000	25.394733 
616.500000	24.986333 
617.000000	24.301866 
617.500000	23.724333 
618.000000	23.171200 
618.500000	22.310333 
619.000000	21.531866 
619.500000	21.074533 
620.000000	20.606733 
620.500000	19.943333 
621.000000	19.381933 
621.500000	18.910600 
622.000000	18.355466 
622.500000	17.756666 
623.000000	17.156600 
623.500000	16.650600 
624.000000	16.322333 
624.500000	16.033533 
625.000000	15.652733 
625.500000	15.183733 
626.000000	14.791400 
626.500000	14.479333 
627.000000	14.142000 
627.500000	13.759200 
628.000000	13.350733 
628.500000	12.929466 
629.000000	12.556200 
629.500000	12.333200 
630.000000	12.180600 
630.500000	11.987133 
631.000000	11.802600 
631.500000	11.576266 
632.000000	11.340933 
632.500000	11.153800 
633.000000	10.949666 
633.500000	10.713466 
634.000000	10.476000 
634.500000	10.272600 
635.000000	10.125266 
635.500000	9.991866  
636.000000	9.846000  
636.500000	9.664000  
637.000000	9.492066  
637.500000	9.306866  
638.000000	9.064000  
638.500000	8.979133  
639.000000	9.015400  
639.500000	8.938600  
640.000000	8.722666  
640.500000	8.526866  
641.000000	8.435266  
641.500000	8.404933  
642.000000	8.284933  
642.500000	8.101466  
643.000000	7.896266  
643.500000	7.747866  
644.000000	7.691866  
644.500000	7.581999  
645.000000	7.367200  
645.500000	7.258266  
646.000000	7.223666  
646.500000	7.110600  
647.000000	6.917466  
647.500000	6.752400  
648.000000	6.681799  
648.500000	6.563333  

